1654186616.00
64.000000
-0.00
-0.00
-0.00
-0.00
-0.00
-0.00
-0.00
-0.00
-0.00
-0.00
0.00
0.01
0.01
-0.00
-0.03
-0.05
-0.05
0.00
0.13
0.36
0.66
1.01
1.37
1.72
2.06
2.40
2.79
3.24
3.80
4.42
5.06
5.66
6.20
6.68
7.15
7.68
8.31
9.14
10.09
11.04
11.88
12.56
13.14
13.76
14.65
15.96
17.91
20.32
22.90
25.38
27.58
29.57
31.68
34.32
37.81
42.54
48.15
54.10
59.83
64.97
69.58
74.14
79.34
85.71
93.76
103.00
112.62
121.73
129.77
136.75
143.30
150.75
157.77
166.64
177.95
191.79
206.97
220.57
228.25
225.36
208.53
176.87
132.76
80.05
23.07
-34.94
-92.44
-149.16
-205.23
-260.37
-313.74
-363.87
-409.83
-450.91
-486.50
-515.74
-537.23
-549.22
-549.96
-538.37
-514.21
-478.67
-433.88
-382.45
-327.02
-269.84
-212.63
-156.66
-102.95
-52.37
-5.90
35.58
71.43
101.35
125.50
144.38
158.69
169.15
176.37
180.75
182.57
182.07
179.51
175.23
169.65
163.17
156.14
148.80
141.30
133.71
126.05
118.36
110.68
103.09
95.66
88.45
81.53
74.92
68.62
62.64
56.96
51.56
46.44
41.62
37.11
32.94
29.09
25.58
22.36
19.38
16.61
14.02
11.63
9.48
7.63
6.11
4.89
3.88
2.97
2.04
1.02
-0.04
-1.03
-1.79
-2.22
-2.35
-2.34
-2.42
-2.82
-3.62
-4.72
-5.87
-6.73
-7.10
-6.99
-6.64
-6.47
-6.84
-7.89
-9.46
-11.14
-12.48
-13.15
-13.14
-12.71
-12.29
-12.31
-13.08
-14.84
-17.62
-21.11
-24.39
-26.01
-24.33
-18.30
-8.11
4.62
17.25
27.17
32.83
34.15
32.30
28.84
24.85
20.69
16.16
11.14
5.98
1.48
-1.44
-2.36
-1.46
0.57
2.86
4.86
6.42
7.69
8.87
10.01
10.96
11.57
11.78
11.84
12.13
13.03
14.74
17.18
20.08
23.11
25.98
28.56
30.87
32.96
34.83
36.31
37.11
36.87
35.27
32.36
28.13
22.87
17.00
10.86
4.75
-1.13
-6.57
-11.41
-15.45
-18.57
-20.66
-21.73
-21.87
-21.29
-20.23
-18.95
-17.63
-16.32
-15.02
-13.68
-12.36
-11.17
-10.32
-10.01
-10.36
-11.49
-13.60
-17.03
-22.11
-29.07
-37.61
-46.75
-54.86
-59.99
-60.67
-56.62
-49.11
-40.67
-34.28
-31.95
-33.95
-38.70
-43.43
-45.58
-43.64
-37.92
-29.81
-21.41
-13.74
-7.03
-0.86
5.07
10.29
13.79
14.18
10.68
2.88
-8.18
-21.09
-34.35
-46.51
-56.16
-61.38
-60.54
-52.07
-36.07
-13.26
12.52
35.49
50.37
54.85
50.43
40.05
31.01
23.91
18.48
14.38
11.55
10.42
8.13
3.87
-2.58
-10.70
-20.30
-30.42
-40.36
-49.80
-58.52
-66.41
-72.97
-77.99
-81.18
-82.26
-79.66
-71.37
-55.85
-33.10
-5.26
24.06
50.51
70.75
83.30
89.37
91.68
93.13
95.85
100.71
107.75
116.13
124.48
130.86
133.36
130.24
120.51
104.39
83.51
60.76
39.48
22.50
11.36
6.04
5.15
6.52
8.02
8.26
6.79
3.94
0.37
-3.31
-6.65
-9.36
-11.07
-11.29
-9.58
-5.81
-0.37
5.99
12.33
18.02
22.91
27.24
31.29
35.11
38.27
40.08
39.84
37.25
32.58
26.55
20.08
13.92
8.50
3.94
0.21
-2.73
-4.78
-5.79
-5.69
-4.61
-2.96
-1.30
-0.16
-0.01
-1.05
-3.39
-6.96
-11.61
-16.99
-22.56
-27.64
-31.60
-34.09
-35.14
-35.09
-34.41
-33.44
-32.25
-30.75
-28.82
-26.58
-24.29
-22.28
-20.63
-19.07
-17.05
-14.01
-9.62
-3.99
2.41
8.88
14.80
19.83
23.90
27.07
29.42
30.99
31.82
32.01
31.77
31.36
31.16
31.52
32.56
34.31
36.75
39.79
43.18
46.44
49.04
50.57
51.03
50.45
49.12
47.48
45.85
44.17
41.91
38.50
33.89
28.88
24.30
21.00
19.48
19.40
19.61
18.40
14.39
7.28
-2.22
-13.70
-27.08
-42.37
-59.45
-77.85
-97.47
-119.02
-144.47
-171.13
-196.29
-217.36
-231.68
-236.08
-227.64
-206.30
-175.80
-142.50
-112.57
-90.30
-76.40
-68.63
-64.75
-61.62
-58.13
-54.45
-51.04
-47.83
-44.94
-42.29
-39.76
-37.36
-35.18
-33.62
-32.70
-32.05
-30.32
-26.08
-18.19
-6.44
8.20
23.98
38.85
51.58
62.25
72.02
82.02
92.79
104.03
115.03
125.25
134.49
142.95
150.90
158.31
164.68
169.25
171.30
170.34
166.11
158.35
146.88
131.73
113.29
92.44
70.42
48.63
28.43
10.88
-3.42
-14.29
-21.87
-26.40
-28.08
-27.09
-23.76
-18.75
-13.09
-8.10
-5.04
-4.76
-7.37
-12.21
-18.08
-23.64
-27.86
-30.32
-31.20
-31.10
-30.67
-30.26
-29.85
-29.11
-27.73
-25.65
-23.17
-20.84
-19.15
-18.38
-18.45
-18.99
-19.53
-19.56
-18.70
-16.72
-13.66
-9.76
-5.44
-1.20
2.52
5.41
7.29
8.17
8.16
7.52
6.54
5.49
4.48
3.44
2.11
0.31
-1.96
-4.39
-6.46
-7.69
-7.81
-6.91
-5.31
-3.42
-1.60
-0.12
0.86
1.24
1.01
0.27
-0.74
-1.79
-2.74
-3.66
-4.72
-6.10
-7.78
-9.53
-10.99
-11.90
-12.23
-12.19
-12.14
-12.38
-13.02
-14.07
-15.44
-17.04
-18.63
-19.78
-19.89
-18.37
-14.95
-9.85
-3.83
2.17
7.31
11.16
13.70
15.16
15.81
15.82
15.31
14.36
13.05
11.53
9.93
8.38
7.05
6.09
5.65
5.73
6.20
6.83
7.40
7.81
8.07
8.23
8.25
7.99
7.24
5.82
3.76
1.30
-1.14
-3.15
-4.47
-5.10
-5.32
-5.51
-6.03
-6.95
-8.05
-8.80
-8.66
-7.29
-4.79
-1.63
1.53
4.17
6.12
7.61
9.24
11.72
15.67
21.44
29.01
37.93
47.39
56.42
64.10
69.74
73.19
74.68
74.80
74.13
72.99
71.23
68.24
63.16
55.27
44.38
31.16
16.96
3.44
-8.08
-17.05
-23.83
-29.42
-35.03
-41.52
-49.23
-57.94
-67.04
-75.82
-83.71
-90.38
-95.73
-99.79
-102.59
-104.01
-103.79
-101.62
-97.34
-91.07
-83.20
-74.27
-64.78
-55.03
-45.21
-35.52
-26.42
-18.62
-12.94
-9.92
-9.47
-10.67
-11.98
-11.68
-8.52
-2.27
6.28
15.60
24.06
30.53
34.70
36.98
38.09
38.61
38.73
38.30
37.12
35.18
32.79
30.46
28.66
27.60
27.24
27.38
27.80
28.40
29.08
29.74
30.16
30.00
29.07
27.41
25.38
23.56
22.42
22.12
22.34
22.28
20.91
17.26
10.72
1.31
-10.31
-22.87
-34.79
-44.44
-50.55
-52.50
-50.41
-45.06
-37.63
-29.39
-21.32
-14.06
-7.90
-2.88
1.02
3.85
5.60
6.29
6.04
5.04
3.57
1.88
0.09
-1.85
-4.21
-7.34
-11.59
-17.10
-23.72
-31.02
-38.30
-44.84
-50.00
-53.40
-54.92
-54.70
-53.04
-50.41
-47.50
-45.09
-44.02
-44.93
-48.05
-53.18
-59.62
-66.46
-72.79
-77.94
-81.47
-83.21
-83.11
-81.22
-77.57
-72.23
-65.21
-56.51
-46.03
-33.49
-18.44
-0.23
21.75
47.79
77.54
109.90
143.10
174.99
203.53
227.10
244.64
255.51
259.17
254.99
242.27
220.71
190.93
154.87
115.58
76.64
41.19
11.10
-13.18
-32.26
-47.16
-58.59
-66.82
-71.89
-74.02
-73.86
-72.45
-70.78
-69.48
-68.59
-67.65
-66.04
-63.34
-59.55
-55.13
-50.73
-46.99
-44.21
-42.32
-40.97
-39.78
-38.51
-37.18
-35.97
-35.06
-34.48
-34.09
-33.69
-33.18
-32.64
-32.35
-32.61
-33.62
-35.44
-37.93
-40.88
-44.03
-47.09
-49.73
-51.57
-52.12
-50.92
-47.55
-41.82
-33.78
-23.89
-12.94
-2.01
7.78
15.54
20.83
23.79
25.03
25.41
25.66
26.19
27.09
28.15
29.12
29.82
30.23
30.35
30.20
29.75
28.94
27.80
26.47
25.20
24.21
23.67
23.62
23.95
24.48
25.00
25.30
25.22
24.67
23.65
22.26
20.59
18.75
16.73
14.47
11.90
8.99
5.83
2.60
-0.52
-3.37
-5.94
-8.34
-10.77
-13.46
-16.61
-20.32
-24.58
-29.22
-33.95
-38.29
-41.66
-43.38
-42.84
-39.70
-34.01
-26.36
-17.70
-9.15
-1.61
4.44
9.04
12.52
15.27
17.50
19.17
20.14
20.33
19.82
18.90
18.00
17.52
17.72
18.70
20.38
22.54
24.91
27.25
29.39
31.20
32.64
33.60
33.97
33.60
32.41
30.48
28.00
25.20
22.16
18.84
15.06
10.77
6.13
1.55
-2.42
-5.40
-7.33
-8.56
-9.74
-11.46
-14.05
-17.38
-20.99
-24.31
-26.98
-28.91
-30.25
-31.13
-31.48
-30.91
-28.85
-24.82
-18.66
-10.64
-1.26
8.93
19.50
30.11
40.32
49.48
56.76
61.42
63.05
61.74
58.03
52.68
46.38
39.58
32.50
25.23
17.98
11.10
5.13
0.57
-2.31
-3.62
-3.89
-3.86
-4.23
-5.35
-7.16
-9.19
-10.82
-11.54
-11.08
-9.50
-7.12
-4.44
-1.99
-0.18
0.81
1.10
1.11
1.38
2.42
4.62
8.12
12.73
17.84
22.36
24.91
24.07
18.84
8.98
-4.76
-20.84
-37.32
-52.29
-64.18
-71.78
-74.31
-71.24
-62.52
-48.66
-30.92
-11.20
8.19
24.95
37.19
43.74
44.35
39.58
30.71
19.38
7.30
-3.84
-12.68
-18.18
-19.84
-17.78
-12.84
-6.47
-0.39
3.84
5.40
4.31
1.44
-1.97
-4.76
-6.22
-6.27
-5.29
-3.94
-2.82
-2.29
-2.38
-2.89
-3.45
-3.73
-3.55
-2.86
-1.84
-0.76
0.05
0.34
-0.05
-1.09
-2.60
-4.34
-6.09
-7.78
-9.47
-11.37
-13.75
-16.80
-20.50
-24.58
-28.45
-31.32
-32.35
-30.88
-26.71
-20.13
-11.90
-3.03
5.48
12.85
18.62
22.61
24.87
25.59
25.06
23.63
21.63
19.40
17.25
15.37
13.86
12.68
11.73
10.88
10.06
9.26
8.51
7.94
7.65
7.70
8.06
8.58
9.05
9.22
8.95
8.16
6.89
5.19
3.14
0.80
-1.69
-4.21
-6.60
-8.79
-10.88
-13.10
-15.74
-18.99
-22.84
-27.04
-31.23
-35.17
-38.80
-42.32
-45.89
-49.48
-52.64
-54.52
-54.19
-51.01
-45.02
-37.13
-28.96
-22.30
-18.59
-18.29
-20.85
-25.05
-29.58
-33.69
-37.44
-41.55
-46.91
-54.11
-63.23
-73.81
-84.80
-94.31
-99.40
-96.36
-81.83
-54.33
-15.57
29.54
74.28
112.37
139.97
156.35
163.23
163.17
158.24
149.58
137.70
123.24
107.31
91.34
76.57
63.80
53.40
45.39
39.66
35.95
33.79
32.53
31.41
29.70
26.79
22.23
15.86
8.18
0.49
-4.92
-5.33
1.51
16.27
37.41
61.21
82.96
98.36
104.83
102.08
91.79
76.74
59.81
43.25
28.30
15.28
3.89
-6.33
-15.46
-23.01
-27.97
-29.34
-26.67
-20.64
-12.99
-6.04
-1.75
-1.11
-3.89
-9.01
-15.18
-21.53
-27.82
-34.25
-41.11
-48.42
-55.85
-62.87
-69.03
-74.13
-78.28
-81.76
-84.84
-87.77
-90.82
-94.39
-98.91
-104.39
-110.04
-114.09
-114.18
-108.35
-95.99
-78.23
-57.60
-36.95
-18.40
-2.87
9.70
19.71
27.35
32.52
35.14
35.61
34.81
33.82
33.33
33.31
33.20
32.34
30.48
28.01
25.81
24.74
25.30
27.29
29.96
32.33
33.57
33.25
31.45
28.59
25.26
22.01
19.28
17.27
15.86
14.73
13.39
11.42
8.74
5.58
2.44
-0.23
-2.32
-4.11
-6.27
-9.55
-14.54
-21.52
-30.31
-40.27
-50.28
-58.85
-64.42
-65.81
-62.55
-55.14
-44.79
-33.15
-21.65
-11.32
-2.61
4.48
10.10
14.48
17.77
20.12
21.72
22.85
23.82
24.97
26.54
28.62
31.08
33.64
35.89
37.42
37.91
37.13
35.05
31.77
27.53
22.74
17.80
13.11
8.89
5.13
1.65
-1.84
-5.58
-9.63
-13.88
-18.06
-21.87
-25.16
-27.98
-30.61
-33.50
-37.09
-41.55
-46.62
-51.55
-55.20
-56.30
-53.84
-47.34
-37.08
-24.04
-9.70
4.32
16.68
26.51
33.56
38.08
40.60
41.66
41.63
40.67
38.83
36.21
33.06
29.77
26.78
24.36
22.57
21.29
20.29
19.37
18.41
17.27
15.79
13.76
11.04
7.60
3.67
-0.46
-4.57
-8.63
-12.80
-17.23
-21.89
-26.51
-30.65
-33.87
-36.04
-37.30
-38.06
-38.82
-40.01
-41.87
-44.33
-46.87
-48.53
-48.06
-44.27
-36.47
-24.81
-10.31
5.42
20.71
34.21
45.12
53.18
58.54
61.49
62.42
61.74
59.92
57.38
54.52
51.59
48.64
45.55
42.00
37.64
32.31
26.22
19.96
14.32
10.02
7.29
5.83
4.80
3.27
0.47
-3.93
-9.78
-16.62
-23.86
-30.93
-37.46
-43.28
-48.47
-53.36
-58.39
-63.82
-69.56
-74.86
-78.49
-79.02
-75.35
-67.14
-55.01
-40.35
-24.86
-10.00
3.32
14.83
24.68
33.16
40.41
46.40
50.97
54.03
55.70
56.25
56.11
55.62
55.02
54.29
53.21
51.50
48.92
45.43
41.30
36.92
32.74
28.96
25.37
21.37
16.16
9.13
0.25
-9.85
-20.10
-29.47
-37.38
-43.92
-49.71
-55.53
-61.99
-69.30
-77.35
-85.74
-93.82
-100.75
-105.31
-106.18
-102.25
-93.08
-79.33
-62.62
-45.17
-29.10
-15.85
-5.89
1.12
5.96
9.40
11.95
13.81
15.03
15.61
15.52
14.78
13.49
11.92
10.64
10.50
12.67
18.32
28.57
44.08
64.85
89.85
117.02
143.50
166.29
183.07
192.75
195.60
192.75
185.40
174.07
158.44
137.71
111.53
80.66
47.10
13.61
-17.26
-43.94
-66.14
-84.54
-100.04
-113.07
-123.34
-130.05
-132.41
-130.09
-123.44
-113.32
-100.78
-86.89
-72.57
-58.60
-45.64
-34.18
-24.53
-16.85
-11.16
-7.46
-5.67
-5.65
-7.08
-9.48
-12.25
-14.90
-17.10
-18.75
-19.91
-20.69
-21.16
-21.32
-21.23
-21.07
-21.21
-22.00
-23.58
-25.66
-27.52
-28.17
-26.76
-22.87
-16.68
-8.96
-0.83
6.55
12.24
15.67
16.81
16.04
14.02
11.46
8.79
6.06
2.94
-1.02
-6.15
-12.27
-18.66
-24.12
-27.21
-26.66
-21.73
-12.46
0.27
14.90
29.57
42.56
52.63
59.21
62.40
62.68
60.70
56.97
51.83
45.48
38.18
30.35
22.67
15.90
10.73
7.52
6.22
6.38
7.29
8.22
8.56
7.97
6.36
3.86
0.79
-2.44
-5.40
-7.79
-9.48
-10.58
-11.37
-12.22
-13.47
-15.32
-17.74
-20.52
-23.29
-25.77
-27.84
-29.71
-31.89
-34.98
-39.43
-45.12
-51.20
-56.24
-58.52
-56.67
-50.12
-39.34
-25.73
-11.14
2.69
14.57
24.04
31.29
36.84
41.17
44.59
47.11
48.58
48.85
47.91
46.01
43.59
41.15
39.11
37.63
36.64
35.81
34.75
33.08
30.63
27.39
23.52
19.25
14.82
10.39
6.06
1.86
-2.22
-6.16
-9.85
-13.16
-15.99
-18.35
-20.37
-22.16
-23.72
-24.87
-25.30
-24.73
-23.14
-20.83
-18.39
-16.50
-15.79
-16.67
-19.29
-23.49
-28.71
-33.96
-37.88
-39.06
-36.49
-29.82
-19.66
-7.33
5.44
16.97
26.05
32.09
35.12
35.60
34.15
31.35
27.68
23.47
19.03
14.68
10.80
7.68
5.56
4.47
4.36
5.16
6.82
9.30
12.50
16.21
20.10
23.82
27.20
30.34
33.54
37.25
41.68
46.66
51.55
55.34
57.06
56.09
52.45
46.76
40.02
33.21
26.98
21.47
16.41
11.28
5.58
-0.99
-8.59
-17.21
-26.63
-36.33
-45.33
-52.29
-55.71
-54.45
-48.18
-37.71
-24.81
-11.79
-0.75
6.98
11.10
12.31
11.83
11.03
10.88
11.71
13.16
14.41
14.55
12.98
9.68
5.28
0.75
-2.90
-4.95
-5.16
-3.71
-1.09
2.01
4.94
7.08
8.01
7.59
6.01
3.68
1.11
-1.34
-3.61
-5.97
-8.89
-12.75
-17.59
-23.11
-28.73
-33.93
-38.44
-42.40
-46.21
-50.33
-55.00
-60.07
-64.96
-68.74
-70.28
-68.56
-62.91
-53.36
-40.68
-26.25
-11.67
1.66
12.87
21.71
28.41
33.32
36.78
38.99
40.08
40.22
39.63
38.66
37.63
36.70
35.79
34.58
32.65
29.69
25.69
21.00
16.25
12.09
9.05
7.30
6.66
6.70
6.87
6.65
5.73
4.06
1.84
-0.68
-3.38
-6.48
-10.41
-15.63
-22.31
-30.18
-38.65
-47.16
-55.53
-64.06
-73.40
-83.98
-95.62
-107.27
-117.28
-123.90
-125.91
-123.04
-116.09
-106.53
-95.98
-85.67
-76.10
-67.04
-57.77
-47.56
-35.92
-22.80
-8.37
7.29
24.52
44.09
66.86
93.20
122.36
152.24
179.54
200.41
211.31
209.82
195.06
167.94
131.11
89.15
48.40
16.20
-0.69
1.76
23.02
57.61
96.69
130.86
153.21
160.98
155.28
139.36
116.65
89.75
60.56
31.03
3.59
-19.25
-35.99
-46.86
-53.79
-59.37
-65.61
-72.94
-80.17
-85.21
-86.14
-82.07
-73.45
-61.80
-49.14
-37.37
-27.77
-20.89
-16.58
-14.27
-13.26
-12.93
-12.88
-12.95
-13.09
-13.24
-13.33
-13.22
-12.83
-12.16
-11.28
-10.33
-9.41
-8.57
-7.78
-7.05
-6.47
-6.21
-6.47
-7.35
-8.80
-10.55
-12.25
-13.66
-14.69
-15.47
-16.29
-17.39
-18.87
-20.68
-22.69
-24.85
-27.25
-30.08
-33.48
-37.43
-41.61
-45.40
-48.04
-48.73
-46.91
-42.41
-35.50
-26.87
-17.48
-8.27
-0.03
6.80
12.07
15.82
18.15
19.19
19.06
18.02
16.43
14.69
13.18
12.12
11.51
11.24
11.13
11.05
10.98
10.93
10.87
10.74
10.35
9.48
7.99
5.84
3.13
0.10
-2.98
-5.92
-8.68
-11.39
-14.27
-17.51
-21.14
-25.00
-28.83
-32.36
-35.49
-38.37
-41.38
-45.02
-49.65
-55.35
-61.72
-67.95
-72.92
-75.48
-74.72
-70.27
-62.40
-52.06
-40.56
-29.22
-18.92
-9.85
-1.59
6.56
15.07
23.86
32.28
39.44
44.66
47.81
49.37
50.15
50.94
52.21
54.07
56.32
58.60
60.58
61.89
62.22
61.31
59.09
55.80
51.97
48.34
45.52
43.71
42.53
41.14
38.54
34.01
27.40
19.15
10.14
1.37
-6.26
-12.03
-15.51
-16.71
-16.21
-15.11
-14.84
-16.56
-20.76
-26.93
-33.82
-39.90
-43.94
-45.39
-44.29
-41.02
-35.99
-29.45
-21.56
-12.50
-2.65
7.53
17.55
27.01
35.69
43.52
50.43
56.26
60.67
63.23
63.66
62.10
59.14
55.65
52.40
49.66
47.02
43.58
38.27
30.31
19.45
6.12
-8.70
-23.62
-36.97
-47.12
-52.78
-53.46
-49.67
-42.87
-34.99
-27.80
-22.41
-19.11
-17.60
-17.39
-18.12
-19.66
-21.87
-24.45
-26.84
-28.34
-28.34
-26.54
-23.03
-18.25
-12.88
-7.78
-3.84
-1.83
-2.15
-4.63
-8.42
-12.21
-14.56
-14.40
-11.38
-5.93
0.93
7.96
14.15
18.93
22.22
24.22
25.17
25.25
24.50
22.95
20.71
18.04
15.29
12.84
10.96
9.78
9.26
9.21
9.41
9.67
9.88
10.03
10.10
10.02
9.63
8.72
7.12
4.86
2.19
-0.55
-3.03
-5.13
-6.93
-8.69
-10.69
-13.10
-15.92
-18.98
-21.96
-24.57
-26.61
-28.13
-29.40
-30.86
-32.92
-35.72
-39.05
-42.31
-44.70
-45.41
-43.88
-39.93
-33.79
-25.99
-17.27
-8.45
-0.20
6.98
12.88
17.49
20.96
23.41
25.02
25.86
26.07
25.79
25.19
24.49
23.94
23.76
24.04
24.67
25.35
25.70
25.38
24.31
22.73
21.05
19.65
18.66
17.92
17.07
15.77
13.86
11.37
8.48
5.41
2.36
-0.54
-3.21
-5.61
-7.76
-9.68
-11.44
-13.06
-14.62
-16.18
-17.84
-19.68
-21.79
-24.22
-27.01
-30.21
-33.80
-37.62
-41.27
-44.07
-45.23
-44.04
-40.17
-33.78
-25.48
-16.18
-6.88
1.60
8.69
14.13
17.94
20.37
21.74
22.43
22.71
22.76
22.62
22.26
21.66
20.86
19.97
19.15
18.57
18.32
18.42
18.88
19.65
20.65
21.71
22.51
22.69
21.91
20.06
17.37
14.29
11.37
8.93
7.00
5.30
3.42
1.06
-1.83
-5.09
-8.40
-11.49
-14.15
-16.26
-17.78
-18.79
-19.46
-20.09
-21.09
-22.84
-25.54
-29.16
-33.37
-37.63
-41.25
-43.58
-44.03
-42.27
-38.22
-32.12
-24.57
-16.41
-8.60
-1.96
2.98
6.13
7.74
8.27
8.19
7.80
7.24
6.52
5.59
4.36
2.74
0.59
-2.25
-5.84
-10.10
-14.78
-19.60
-24.35
-28.97
-33.63
-38.54
-43.93
-49.88
-56.28
-62.88
-69.38
-75.59
-81.65
-88.01
-95.40
-104.49
-115.61
-128.55
-142.60
-156.76
-170.06
-181.71
-191.19
-198.20
-202.60
-204.45
-203.87
-200.83
-194.78
-184.48
-168.20
-144.30
-111.99
-71.94
-26.33
21.66
68.63
111.81
149.41
180.62
205.36
223.94
236.88
244.87
248.77
249.57
248.27
245.68
242.29
238.16
233.00
226.38
218.04
208.09
197.09
185.86
175.21
165.59
156.98
148.96
140.95
132.48
123.40
113.86
104.24
94.91
86.08
77.70
69.41
60.58
50.47
38.41
24.06
7.56
-10.40
-28.94
-47.25
-64.97
-82.12
-98.88
-115.12
-130.14
-142.82
-152.07
-157.35
-158.82
-157.35
-153.94
-149.46
-144.36
-138.77
-132.77
-126.41
-119.73
-112.63
-104.77
-95.73
-85.16
-73.03
-59.59
-45.27
-30.44
-15.31
0.20
16.37
33.43
51.31
69.31
86.11
100.05
109.64
114.19
114.05
110.56
105.54
100.58
96.50
93.28
90.24
86.52
81.55
75.19
67.68
59.44
50.75
41.57
31.65
20.66
8.53
-4.37
-17.15
-28.75
-38.19
-44.97
-49.16
-51.34
-52.24
-52.38
-51.84
-50.23
-46.89
-41.13
-32.48
-20.83
-6.49
9.84
27.17
44.36
60.26
73.83
84.29
91.25
94.71
95.06
92.95
89.19
84.67
80.29
76.83
74.78
74.27
75.07
76.75
78.87
80.99
82.55
82.72
80.46
74.78
65.34
52.93
39.49
27.58
19.43
16.04
16.86
20.19
23.88
26.23
26.31
23.88
18.88
11.08
0.02
-14.63
-32.55
-52.62
-73.15
-92.43
-109.20
-122.95
-133.83
-142.25
-148.58
-153.12
-156.15
-158.17
-159.85
-161.89
-164.62
-167.77
-170.28
-170.57
-166.97
-158.21
-143.78
-124.22
-101.02
-76.22
-51.98
-30.06
-11.57
2.97
13.49
20.28
23.82
24.83
24.32
23.43
23.31
24.76
28.08
33.07
39.12
45.54
51.74
57.30
61.83
64.98
66.34
65.64
62.91
58.53
53.17
47.58
42.39
37.94
34.33
31.46
29.18
27.32
25.75
24.36
23.12
22.02
21.07
20.17
19.07
17.42
14.90
11.39
7.01
2.05
-3.17
-8.43
-13.71
-19.08
-24.63
-30.31
-35.84
-40.63
-43.89
-44.76
-42.58
-37.20
-29.11
-19.35
-9.26
-0.03
7.61
13.43
17.60
20.36
21.84
22.04
20.99
18.92
16.39
14.12
12.84
12.96
14.53
17.22
20.54
23.97
27.04
29.40
30.77
30.94
29.87
27.68
24.66
21.13
17.33
13.34
9.05
4.24
-1.31
-7.69
-14.79
-22.34
-29.94
-37.20
-43.85
-49.74
-54.93
-59.64
-64.13
-68.64
-73.20
-77.54
-80.93
-82.33
-80.62
-74.92
-64.99
-51.35
-35.23
-18.18
-1.74
12.89
24.99
34.21
40.51
44.15
45.66
45.89
45.95
47.02
50.02
55.32
62.60
70.78
78.23
83.06
83.68
79.20
69.74
56.41
40.90
24.94
9.73
-4.19
-16.81
-28.29
-38.56
-47.25
-53.92
-58.31
-60.62
-61.39
-61.32
-61.04
-60.92
-61.04
-61.24
-61.08
-59.89
-56.88
-51.37
-43.13
-32.48
-20.24
-7.50
4.81
16.05
25.93
34.34
41.18
46.34
49.70
51.30
51.39
50.35
48.58
46.44
44.18
41.97
39.94
38.14
36.57
35.15
33.78
32.37
30.86
29.20
27.28
24.87
21.68
17.49
12.24
6.12
-0.55
-7.41
-14.14
-20.54
-26.50
-31.97
-37.05
-41.99
-47.18
-52.99
-59.44
-65.96
-71.29
-73.76
-71.83
-64.69
-52.63
-36.97
-19.64
-2.61
12.65
25.36
35.36
42.92
48.40
52.11
54.23
54.84
54.00
51.87
48.68
44.85
40.88
37.32
34.67
33.19
32.90
33.54
34.64
35.62
35.90
35.02
32.70
28.88
23.70
17.47
10.50
3.07
-4.66
-12.60
-20.65
-28.67
-36.36
-43.36
-49.36
-54.23
-58.15
-61.57
-65.15
-69.32
-74.08
-78.65
-81.64
-81.34
-76.35
-66.14
-51.25
-33.18
-13.96
4.46
20.57
33.50
42.94
49.00
52.01
52.42
50.77
47.61
43.46
38.71
33.60
28.20
22.51
16.52
10.33
4.16
-1.54
-6.30
-9.76
-11.83
-12.81
-13.22
-13.63
-14.47
-15.86
-17.74
-19.98
-22.51
-25.31
-28.33
-31.38
-34.09
-36.11
-37.27
-37.64
-37.40
-36.54
-34.61
-30.77
-24.08
-14.10
-1.19
13.42
27.97
40.73
50.44
56.51
58.97
58.34
55.44
51.33
47.26
44.38
43.45
44.53
46.84
49.08
49.93
48.60
45.16
40.45
35.62
31.69
29.25
28.41
29.07
31.02
33.98
37.46
40.70
42.79
42.99
41.04
37.34
32.67
27.88
23.44
19.26
14.95
10.04
4.36
-1.93
-8.54
-15.14
-21.49
-27.30
-32.12
-35.21
-35.69
-32.85
-26.51
-17.18
-6.07
5.33
15.58
23.66
29.08
31.66
31.45
28.60
23.41
16.42
8.48
0.58
-6.34
-11.67
-15.22
-17.15
-17.78
-17.43
-16.34
-14.68
-12.63
-10.35
-8.02
-5.76
-3.65
-1.80
-0.38
0.46
0.64
0.28
-0.33
-0.88
-1.25
-1.62
-2.47
-4.32
-7.48
-11.89
-17.12
-22.51
-27.43
-31.50
-34.69
-37.33
-39.94
-43.03
-46.91
-51.51
-56.36
-60.71
-63.71
-64.64
-63.19
-59.50
-54.22
-48.27
-42.62
-37.93
-34.36
-31.46
-28.34
-24.02
-17.80
-9.66
-0.24
9.30
17.72
24.06
27.88
29.30
28.83
27.09
24.67
22.01
19.43
17.27
15.89
15.65
16.80
19.34
22.91
26.82
30.22
32.25
32.32
30.31
26.53
21.71
16.70
12.17
8.36
4.93
1.05
-4.31
-11.96
-21.87
-32.88
-42.64
-48.09
-46.36
-35.79
-16.74
8.26
34.91
58.31
74.26
80.26
76.08
63.46
45.44
25.34
6.01
-10.63
-23.63
-32.82
-38.53
-41.25
-41.51
-39.76
-36.41
-31.70
-25.89
-19.16
-11.74
-3.93
3.79
10.74
16.06
18.83
18.38
14.60
8.00
-0.29
-8.97
-16.94
-23.65
-29.17
-33.96
-38.56
-43.41
-48.72
-54.56
-60.98
-67.94
-75.30
-82.60
-89.06
-93.62
-95.29
-93.46
-88.09
-79.87
-69.97
-59.80
-50.54
-42.86
-36.76
-31.59
-26.42
-20.30
-12.66
-3.41
7.02
17.90
28.49
38.22
46.84
54.31
60.67
65.87
69.77
72.27
73.52
74.05
74.69
76.34
79.56
84.38
90.16
95.90
100.49
103.11
103.31
101.06
96.62
90.38
82.70
73.83
63.85
52.61
39.92
25.71
10.31
-5.44
-20.24
-32.63
-41.37
-45.77
-45.83
-42.11
-35.49
-27.00
-17.66
-8.51
-0.52
5.44
8.89
9.91
9.35
8.61
9.27
12.52
18.66
27.00
35.99
43.86
49.09
50.87
49.12
44.25
36.85
27.43
16.45
4.39
-8.08
-20.13
-30.89
-39.67
-46.13
-50.33
-52.65
-53.71
-54.21
-54.86
-56.15
-58.26
-60.89
-63.25
-64.23
-62.71
-57.93
-49.73
-38.63
-25.71
-12.24
0.68
12.36
22.60
31.51
39.22
45.66
50.50
53.29
53.67
51.56
47.20
41.05
33.59
25.20
16.12
6.49
-3.49
-13.49
-23.10
-31.91
-39.61
-46.07
-51.32
-55.54
-59.01
-61.95
-64.56
-66.98
-69.34
-71.78
-74.43
-77.37
-80.48
-83.46
-85.71
-86.48
-84.99
-80.64
-73.20
-63.00
-50.80
-37.59
-24.19
-10.97
2.15
15.32
28.29
40.07
49.14
54.08
54.42
51.06
46.02
41.61
39.44
39.87
42.14
45.05
47.61
49.49
50.79
51.70
52.12
51.66
49.97
46.94
42.84
38.07
32.76
26.71
19.34
10.07
-1.25
-14.08
-27.32
-39.47
-49.07
-55.00
-56.58
-53.70
-46.78
-36.74
-24.92
-12.89
-2.16
6.13
11.35
13.44
12.71
9.67
4.87
-1.12
-7.82
-14.81
-21.85
-28.97
-36.28
-43.93
-51.83
-59.63
-66.86
-73.17
-78.52
-83.20
-87.69
-92.36
-97.35
-102.49
-107.44
-111.95
-115.97
-119.66
-123.23
-126.70
-129.64
-131.07
-129.56
-123.55
-111.69
-93.10
-67.52
-35.31
2.50
44.25
87.63
129.84
168.03
199.73
