1654974508.00
64.000000
-0.00
-0.00
-0.00
-0.00
-0.00
-0.00
-0.00
-0.00
-0.00
-0.00
0.00
0.01
0.01
-0.00
-0.03
-0.05
-0.05
0.00
0.13
0.36
0.66
1.01
1.37
1.72
2.06
2.40
2.79
3.24
3.80
4.42
5.06
5.66
6.20
6.68
7.15
7.68
8.31
9.14
10.09
11.04
11.88
12.56
13.14
13.76
14.65
15.96
17.91
20.32
22.90
25.38
27.58
29.57
31.68
34.32
37.82
42.54
48.14
54.10
59.83
64.97
69.60
74.19
79.40
85.75
93.74
102.85
112.32
121.27
129.17
136.08
142.62
150.07
157.11
165.94
177.15
190.85
205.88
219.37
227.02
224.17
207.40
175.74
131.51
78.54
21.18
-37.21
-94.96
-151.75
-207.73
-262.73
-316.11
-366.57
-413.26
-455.33
-491.96
-521.96
-543.76
-555.63
-556.10
-544.51
-521.00
-486.91
-444.15
-394.84
-341.03
-284.59
-227.26
-170.79
-116.93
-67.21
-22.86
15.55
48.13
75.46
98.27
117.08
132.11
143.24
150.30
153.00
151.25
145.37
136.44
126.65
119.10
117.01
122.45
135.22
152.56
170.05
183.27
189.45
188.24
181.32
171.17
159.80
148.16
136.33
124.21
112.09
100.71
90.85
82.89
76.53
70.94
65.28
58.78
51.33
43.40
35.77
29.14
23.72
19.14
14.69
9.67
3.80
-2.54
-8.46
-13.00
-15.45
-15.69
-14.11
-11.46
-8.47
-5.72
-3.45
-1.67
-0.37
0.50
0.88
0.73
0.05
-1.06
-2.46
-3.98
-5.42
-6.58
-7.16
-6.91
-5.73
-3.78
-1.53
0.42
1.61
1.90
1.53
0.93
0.42
0.11
-0.15
-0.52
-1.04
-1.58
-1.94
-2.04
-1.98
-1.99
-2.27
-2.88
-3.77
-4.72
-5.49
-5.85
-5.62
-4.72
-3.19
-1.27
0.68
2.29
3.27
3.55
3.22
2.51
1.67
0.88
0.21
-0.31
-0.65
-0.74
-0.53
0.04
0.96
2.19
3.57
4.95
6.21
7.27
8.10
8.71
9.10
9.30
9.30
9.11
8.71
8.03
6.99
5.46
3.45
0.93
-1.92
-4.83
-7.54
-9.77
-11.34
-12.09
-11.97
-11.03
-9.49
-7.68
-6.01
-4.79
-4.16
-4.05
-4.25
-4.52
-4.73
-4.90
-5.08
-5.35
-5.65
-5.86
-5.80
-5.36
-4.58
-3.65
-2.85
-2.44
-2.51
-2.98
-3.57
-3.99
-4.06
-3.73
-3.16
-2.58
-2.18
-2.09
-2.35
-2.90
-3.66
-4.51
-5.39
-6.24
-7.06
-7.78
-8.33
-8.66
-8.73
-8.51
-8.01
-7.22
-6.09
-4.60
-2.67
-0.36
2.22
4.83
7.26
9.40
11.26
12.98
14.47
15.71
16.71
17.43
17.83
17.85
17.48
16.75
15.72
14.48
13.22
12.06
11.08
10.29
9.61
8.99
8.39
7.78
7.10
6.23
4.96
3.11
0.60
-2.39
-5.51
-8.35
-10.64
-12.37
-13.75
-15.05
-16.46
-18.02
-19.60
-21.06
-22.32
-23.33
-24.03
-24.21
-23.58
-21.78
-18.64
-14.24
-9.01
-3.55
1.53
5.79
9.11
11.61
13.50
14.94
15.91
16.32
16.06
15.13
13.72
12.16
10.72
9.56
8.64
7.74
6.64
5.29
3.82
2.54
1.71
1.44
1.54
1.66
1.42
0.57
-0.91
-2.90
-5.18
-7.61
-10.11
-12.62
-15.07
-17.36
-19.43
-21.36
-23.35
-25.61
-28.15
-30.67
-32.57
-33.13
-31.89
-28.73
-24.03
-18.37
-12.38
-6.52
-1.00
4.07
8.59
12.37
15.22
17.02
17.86
18.00
17.79
17.57
17.51
17.63
17.82
17.99
18.07
18.05
18.00
17.97
17.96
17.90
17.58
16.72
15.08
12.56
9.26
5.51
1.71
-1.86
-5.11
-8.17
-11.28
-14.62
-18.22
-21.98
-25.71
-29.20
-32.23
-34.50
-35.62
-35.21
-33.06
-29.25
-24.18
-18.47
-12.73
-7.36
-2.55
1.68
5.34
8.34
10.56
11.88
12.34
12.16
11.73
11.42
11.52
12.11
13.17
14.51
15.95
17.33
18.57
19.63
20.47
21.02
21.10
20.48
18.98
16.58
13.50
10.11
6.78
3.78
1.09
-1.48
-4.19
-7.21
-10.55
-14.10
-17.72
-21.26
-24.58
-27.46
-29.56
-30.41
-29.58
-26.82
-22.24
-16.33
-9.81
-3.38
2.45
7.46
11.70
15.27
18.21
20.49
22.05
22.95
23.38
23.65
24.00
24.51
25.02
25.21
24.76
23.48
21.40
18.73
15.76
12.79
9.96
7.30
4.70
2.07
-0.62
-3.26
-5.68
-7.69
-9.17
-10.19
-10.93
-11.70
-12.79
-14.44
-16.68
-19.34
-21.99
-24.08
-25.05
-24.52
-22.38
-18.76
-13.96
-8.40
-2.50
3.31
8.66
13.26
16.94
19.63
21.39
22.33
22.55
22.13
21.18
19.85
18.37
16.99
15.84
14.92
14.10
13.13
11.85
10.24
8.43
6.65
5.10
3.81
2.65
1.40
-0.17
-2.07
-4.12
-6.01
-7.44
-8.31
-8.78
-9.22
-10.01
-11.41
-13.42
-15.84
-18.30
-20.37
-21.56
-21.44
-19.66
-16.07
-10.88
-4.67
1.73
7.46
11.83
14.55
15.72
15.68
14.88
13.71
12.47
11.35
10.49
9.98
9.88
10.14
10.61
11.06
11.21
10.90
10.11
9.01
7.87
6.96
6.42
6.24
6.26
6.30
6.22
5.94
5.44
4.69
3.62
2.22
0.55
-1.29
-3.16
-4.98
-6.79
-8.74
-10.91
-13.28
-15.62
-17.59
-18.82
-19.08
-18.32
-16.71
-14.49
-11.91
-9.17
-6.39
-3.67
-1.13
1.08
2.81
3.97
4.56
4.65
4.38
3.91
3.40
3.00
2.80
2.83
3.04
3.29
3.38
3.11
2.40
1.29
-0.04
-1.32
-2.32
-2.83
-2.76
-2.11
-1.02
0.18
1.00
0.89
-0.64
-3.75
-8.16
-13.21
-17.98
-21.63
-23.62
-23.82
-22.43
-19.84
-16.45
-12.61
-8.62
-4.82
-1.55
0.87
2.31
2.86
2.81
2.52
2.26
2.16
2.17
2.21
2.28
2.45
2.88
3.70
4.90
6.36
7.82
8.98
9.63
9.70
9.31
8.68
8.03
7.50
7.04
6.46
5.50
3.95
1.79
-0.78
-3.36
-5.46
-6.59
-6.40
-4.79
-1.95
1.69
5.53
8.98
11.58
13.14
13.71
13.51
12.83
11.91
10.92
9.93
8.92
7.79
6.47
4.86
2.92
0.68
-1.78
-4.29
-6.68
-8.80
-10.52
-11.82
-12.74
-13.36
-13.81
-14.22
-14.72
-15.40
-16.40
-17.80
-19.71
-22.19
-25.19
-28.48
-31.60
-33.93
-34.85
-33.88
-30.88
-26.09
-20.08
-13.63
-7.51
-2.33
1.61
4.37
6.32
8.03
10.06
12.79
16.34
20.51
24.89
29.00
32.45
34.97
36.46
36.95
36.49
35.16
33.07
30.34
27.13
23.67
20.17
16.81
13.68
10.80
8.14
5.67
3.34
1.09
-1.23
-3.82
-6.82
-10.24
-13.82
-17.10
-19.53
-20.63
-20.15
-18.13
-14.78
-10.49
-5.69
-0.85
3.59
7.23
9.83
11.35
11.89
11.69
10.99
10.00
8.87
7.76
6.80
6.11
5.72
5.58
5.56
5.53
5.45
5.29
5.10
4.83
4.36
3.50
2.08
0.07
-2.40
-5.03
-7.49
-9.56
-11.22
-12.67
-14.23
-16.18
-18.55
-21.13
-23.42
-24.87
-25.00
-23.59
-20.71
-16.65
-11.87
-6.80
-1.86
2.67
6.51
9.49
11.47
12.43
12.53
12.04
11.27
10.49
9.82
9.27
8.78
8.25
7.63
6.91
6.09
5.16
4.10
2.91
1.57
0.12
-1.42
-3.03
-4.69
-6.35
-7.94
-9.41
-10.76
-12.04
-13.35
-14.83
-16.60
-18.61
-20.66
-22.30
-22.99
-22.24
-19.82
-15.86
-10.82
-5.36
-0.09
4.55
8.41
11.55
14.07
16.05
17.52
18.46
18.88
18.87
18.55
18.03
17.37
16.56
15.59
14.46
13.23
11.99
10.82
9.77
8.84
7.95
6.98
5.77
4.21
2.26
0.01
-2.37
-4.69
-6.85
-8.86
-10.87
-13.03
-15.45
-18.12
-20.85
-23.33
-25.18
-26.00
-25.45
-23.39
-19.90
-15.28
-10.03
-4.68
0.30
4.60
8.09
10.77
12.72
14.02
14.76
15.04
14.98
14.74
14.44
14.18
13.97
13.74
13.41
12.95
12.37
11.76
11.20
10.72
10.24
9.60
8.66
7.33
5.63
3.65
1.57
-0.47
-2.36
-4.09
-5.73
-7.45
-9.46
-11.94
-14.90
-18.17
-21.35
-23.94
-25.42
-25.39
-23.74
-20.55
-16.18
-11.11
-5.85
-0.88
3.47
7.00
9.66
11.48
12.57
13.06
13.09
12.78
12.27
11.63
10.95
10.22
9.50
8.83
8.26
7.90
7.75
7.75
7.75
7.55
6.95
5.85
4.27
2.33
0.22
-1.87
-3.86
-5.78
-7.74
-9.90
-12.36
-15.10
-17.97
-20.65
-22.75
-23.82
-23.52
-21.68
-18.36
-13.88
-8.74
-3.47
1.49
5.86
9.54
12.57
15.05
17.04
18.58
19.70
20.44
20.88
21.16
21.46
21.89
22.47
23.09
23.52
23.46
22.69
21.12
18.83
16.03
12.94
9.69
6.28
2.58
-1.58
-6.35
-11.75
-17.67
-23.82
-29.80
-35.14
-39.41
-42.29
-43.61
-43.32
-41.45
-38.05
-33.21
-27.12
-20.17
-12.92
-6.04
-0.10
4.62
8.16
10.78
12.82
14.47
15.79
16.67
16.99
16.71
15.92
14.83
13.71
12.87
12.54
12.90
13.97
15.60
17.49
19.20
20.23
20.14
18.66
15.77
11.80
7.28
2.80
-1.20
-4.69
-7.95
-11.50
-15.75
-20.83
-26.44
-31.94
-36.56
-39.63
-40.76
-39.90
-37.39
-33.79
-29.79
-26.05
-22.98
-20.78
-19.37
-18.62
-18.43
-18.81
-19.88
-21.73
-24.34
-27.47
-30.74
-33.75
-36.18
-37.84
-38.62
-38.44
-37.23
-34.96
-31.70
-27.65
-23.11
-18.34
-13.50
-8.57
-3.49
1.76
7.01
11.99
16.29
19.62
21.80
22.89
23.03
22.39
21.12
19.30
17.05
14.56
12.18
10.39
9.62
10.15
11.94
14.67
17.77
20.70
23.03
24.58
25.35
25.49
25.12
24.32
23.12
21.56
19.72
17.76
15.89
14.28
12.97
11.90
10.90
9.80
8.53
7.15
5.88
4.88
4.22
3.75
3.21
2.40
1.25
-0.09
-1.37
-2.42
-3.22
-3.93
-4.79
-6.04
-7.84
-10.27
-13.31
-16.83
-20.45
-23.57
-25.40
-25.19
-22.51
-17.43
-10.52
-2.66
5.20
12.32
18.22
22.72
25.84
27.75
28.72
29.04
28.99
28.78
28.52
28.26
28.01
27.83
27.79
27.95
28.28
28.64
28.80
28.54
27.70
26.28
24.43
22.41
20.50
18.92
17.79
17.13
16.84
16.75
16.68
16.48
16.08
15.55
15.06
14.85
15.18
16.30
18.37
21.51
25.75
31.02
37.08
43.51
49.73
55.11
59.02
61.06
61.09
59.36
56.51
53.67
52.29
54.03
60.40
72.30
89.64
110.96
133.59
154.00
168.62
174.64
170.55
156.40
133.54
104.11
70.51
34.95
-0.71
-34.95
-66.60
-94.87
-119.47
-140.69
-159.22
-175.65
-189.99
-201.52
-208.74
-209.88
-203.79
-190.55
-171.59
-149.21
-125.70
-102.66
-81.00
-60.95
-42.38
-25.09
-9.00
5.90
19.58
31.97
42.89
51.59
57.51
60.76
62.42
64.19
67.89
74.71
84.91
97.69
110.40
120.64
127.20
130.47
131.97
133.71
137.72
145.53
157.35
168.93
174.55
168.72
148.03
111.92
62.96
6.64
-49.73
-99.10
-140.45
-174.93
-204.22
-229.49
-252.17
-274.51
-298.96
-326.91
-357.77
-393.76
-433.84
-473.31
-505.56
-525.88
-534.04
-533.47
-528.43
-493.22
-414.58
-297.20
-163.01
-35.62
71.85
156.58
220.70
266.63
299.59
316.72
315.52
297.99
271.58
246.18
230.38
228.64
242.30
268.96
299.31
324.33
338.52
340.76
332.58
316.14
293.64
267.66
241.27
214.91
189.10
164.28
140.67
117.44
92.82
65.12
33.87
0.08
-35.41
-70.74
-103.31
-130.45
-150.38
-162.73
-168.49
-169.22
-166.46
-161.70
-155.61
-148.19
-139.19
-128.50
-116.10
-101.74
-84.63
-64.09
-40.64
-16.87
2.40
11.20
4.45
-19.98
-60.14
-110.35
-162.62
-208.68
-241.62
-256.88
-252.67
-230.13
-193.13
-147.68
-100.70
-58.38
-24.66
-0.64
14.99
24.56
30.16
32.99
33.63
32.65
31.04
30.16
31.05
33.91
38.00
42.10
45.25
47.12
47.95
48.18
48.16
48.22
48.79
50.57
54.17
59.58
65.95
71.82
75.90
77.84
78.52
79.56
82.32
87.08
92.77
97.38
98.93
96.27
89.50
79.75
68.53
57.05
45.59
33.58
20.21
5.40
-9.39
-21.18
-26.55
-23.26
-11.56
5.56
23.49
37.87
46.30
48.99
48.12
46.42
45.85
46.92
49.09
51.52
53.85
56.36
59.58
63.81
68.66
73.16
75.98
76.08
73.10
67.55
60.62
53.61
47.49
42.48
38.06
33.23
27.05
18.96
9.08
-1.86
-12.69
-22.21
-29.43
-33.91
-35.71
-35.36
-33.46
-30.43
-26.41
-21.27
-14.87
-7.26
1.21
9.99
18.57
26.43
32.98
37.59
39.71
39.16
36.31
32.07
27.41
23.03
19.02
15.13
11.25
7.63
4.87
3.40
2.94
2.39
0.35
-4.19
-11.25
-19.93
-29.07
-37.92
-46.38
-54.70
-62.96
-70.60
-76.60
-79.91
-80.04
-77.42
-73.09
-68.20
-63.52
-59.10
-54.53
-49.24
-43.08
-36.31
-29.66
-23.82
-19.17
-15.58
-12.52
-9.38
-5.72
-1.36
3.81
9.80
16.50
23.40
29.42
33.06
33.03
28.91
21.57
12.89
4.91
-1.05
-4.90
-7.43
-9.61
-11.91
-14.03
-15.23
-14.78
-12.37
-8.26
-3.13
1.88
5.61
7.10
6.02
2.84
-1.17
-4.46
-5.73
-4.45
-0.69
5.34
13.73
24.80
38.50
53.66
67.74
77.43
79.89
73.84
60.05
40.85
19.11
-2.62
-22.59
-39.74
-53.44
-63.39
-69.65
-72.80
-73.81
-73.77
-73.48
-73.30
-73.23
-73.18
-73.15
-73.21
-73.37
-73.35
-72.62
-70.56
-66.68
-60.85
-53.25
-44.26
-34.35
-24.04
-13.97
-4.88
2.47
7.56
10.31
11.17
11.06
11.03
12.05
14.71
19.28
25.54
32.78
39.75
44.83
46.42
43.51
36.15
25.41
12.96
0.38
-11.39
-22.11
-31.72
-40.03
-46.52
-50.75
-52.86
-53.81
-54.92
-57.05
-59.92
-62.18
-62.18
-59.06
-53.19
-46.00
-39.02
-33.09
-28.10
-23.46
-18.83
-14.52
-11.36
-10.09
-10.94
-13.49
-16.97
-20.65
-24.03
-26.81
-28.78
-29.73
-29.61
-28.61
-27.09
-25.42
-23.83
-22.38
-21.06
-19.90
-19.05
-18.64
-18.68
-18.97
-19.18
-18.92
-17.93
-16.15
-13.71
-10.92
-8.17
-5.88
-4.25
-3.28
-2.59
-1.61
0.21
3.17
7.25
12.09
17.19
22.07
26.37
29.87
32.48
34.30
35.51
36.41
37.23
38.09
38.96
39.68
40.08
40.03
39.43
38.22
36.41
34.14
31.72
29.59
28.17
27.58
27.58
27.60
27.06
25.66
23.55
21.26
19.45
18.63
19.00
20.49
22.90
25.98
29.50
33.19
36.70
39.66
41.80
42.97
43.26
42.83
41.83
40.27
38.07
35.16
31.57
27.49
23.23
19.09
15.29
11.92
8.98
6.48
4.37
2.61
1.10
-0.29
-1.67
-3.10
-4.57
-6.00
-7.33
-8.50
-9.49
-10.33
-11.06
-11.78
-12.62
-13.66
-14.81
-15.85
-16.42
-16.17
-14.88
-12.59
-9.54
-6.08
-2.53
0.88
4.02
6.85
9.32
11.40
12.99
14.01
14.37
14.00
12.87
11.07
8.76
6.25
3.93
2.17
1.20
1.10
1.67
2.53
3.22
3.26
2.25
-0.08
-3.76
-8.54
-13.96
-19.44
-24.47
-28.82
-32.54
-35.95
-39.50
-43.61
-48.58
-54.48
-60.92
-67.04
-71.56
-73.25
-71.48
-66.69
-60.32
-54.39
-50.77
-50.55
-53.93
-60.49
-69.52
-80.36
-92.28
-104.36
-115.44
-124.31
-130.09
-132.56
-132.32
-130.64
-129.19
-129.58
-132.75
-138.61
-145.94
-152.71
-156.72
-156.47
-151.59
-142.90
-132.02
-120.84
-111.01
-103.77
-99.90
-99.57
-102.24
-106.51
-110.50
-112.32
-110.76
-105.45
-96.56
-84.13
-67.53
-45.56
-17.18
17.52
56.78
97.47
136.16
170.23
198.59
221.38
239.23
252.52
261.05
264.45
262.86
257.21
248.99
239.58
229.63
218.72
205.83
189.97
170.93
149.46
127.06
105.50
86.25
70.18
57.48
47.93
40.97
35.95
32.26
29.44
27.43
26.18
25.49
25.08
24.82
24.82
25.34
26.68
28.87
31.67
34.30
35.55
34.10
29.42
21.45
10.67
-2.00
-15.46
-27.99
-38.09
-44.91
-48.37
-47.89
-43.57
-36.27
-27.35
-18.64
-10.32
-2.03
6.42
14.97
25.04
36.50
47.07
53.16
50.96
41.70
29.73
20.61
19.73
33.60
64.32
108.23
157.28
200.79
234.04
255.90
267.30
270.88
274.02
282.22
296.80
315.04
330.45
342.24
351.29
358.20
333.95
264.07
155.37
32.46
-62.52
-129.28
-173.79
-201.00
-218.99
-231.36
-236.43
-233.62
-225.27
-216.16
-213.28
-216.54
-222.88
-228.96
-231.68
-226.54
-212.13
-191.05
-168.69
-152.14
-142.37
-136.96
-132.71
-126.54
-115.02
-97.06
-74.33
-50.35
-29.98
-14.64
-3.57
4.40
10.45
15.96
21.60
27.32
32.60
36.26
38.41
40.28
42.92
46.94
52.65
60.05
69.10
79.60
90.70
95.43
88.49
69.06
42.22
15.70
-4.80
-17.54
-24.00
-26.99
-28.82
-29.62
-28.10
-23.27
-15.61
-7.32
-1.02
1.54
0.19
-2.80
-5.28
-5.06
-1.12
5.87
13.67
19.76
22.34
20.96
16.37
10.32
4.73
0.68
-1.87
-4.33
-8.47
-15.69
-26.69
-41.31
-58.50
-76.88
-95.16
-109.47
-116.23
-113.66
-102.80
-86.65
-68.52
-51.11
-36.30
-25.17
-17.99
-14.72
-14.76
-17.03
-20.15
-23.35
-25.63
-26.41
-25.47
-22.80
-18.93
-14.58
-10.45
-6.96
-4.24
-2.14
-0.45
1.06
2.63
3.90
4.37
3.63
1.49
-1.91
-6.13
-10.57
-14.46
-16.90
-17.16
-14.75
-9.58
-2.04
7.08
16.74
25.84
33.49
39.14
42.54
43.70
42.81
40.16
36.21
31.50
26.68
22.32
18.81
16.25
14.42
12.89
11.14
8.83
5.80
2.10
-2.08
-6.49
-10.91
-15.15
-19.11
-22.82
-26.46
-30.21
-34.17
-38.17
-41.71
-44.03
-44.29
-41.85
-36.41
-28.15
-17.59
-5.50
7.30
20.03
32.05
42.84
52.04
59.45
65.04
68.94
71.38
72.67
73.09
72.86
72.10
70.82
68.91
66.16
62.36
57.35
51.18
44.10
36.53
28.96
21.72
14.93
8.48
2.16
-4.21
-10.67
-17.07
-23.08
-28.25
-32.04
-33.96
-33.68
-31.21
-26.91
-21.50
-15.78
-10.45
-5.95
-2.42
0.14
1.81
2.58
2.42
1.35
-0.46
-2.67
-4.86
-6.62
-7.64
-7.88
-7.57
-7.10
-6.94
-7.41
-8.60
-10.30
-12.18
-13.90
-15.26
-16.28
-17.06
-17.78
-18.64
-19.82
-21.51
-23.78
-26.41
-28.84
-30.19
-29.56
-26.44
-20.93
-13.79
-6.19
0.75
6.31
10.30
12.88
14.37
14.98
14.75
13.66
11.76
9.25
6.51
3.99
2.13
1.16
1.10
1.70
2.53
3.14
3.22
2.64
1.56
0.27
-0.99
-2.09
-3.06
-3.92
-4.62
-5.16
-5.71
-6.69
-8.56
-11.45
-14.81
-17.37
-17.63
-14.56
-8.18
0.36
9.27
16.89
22.28
25.37
26.58
26.38
24.93
22.16
18.08
13.03
7.65
2.74
-1.00
-3.23
-4.02
-3.69
-2.74
-1.62
-0.71
-0.25
-0.35
-1.02
-2.24
-3.93
-6.04
-8.47
-11.18
-14.11
-17.24
-20.53
-23.91
-27.17
-29.93
-31.72
-31.99
-30.31
-26.53
-20.81
-13.66
-5.82
1.90
8.71
14.02
17.46
18.96
18.68
17.03
14.52
11.66
8.86
6.40
4.38
2.79
1.47
0.22
-1.21
-3.05
-5.43
-8.37
-11.70
-15.20
-18.64
-21.87
-24.87
-27.76
-30.68
-33.82
-37.36
-41.47
-46.23
-51.54
-57.05
-62.09
-65.77
-67.23
-65.83
-61.36
-54.09
-44.71
-34.08
-23.08
-12.43
-2.63
6.08
13.63
20.21
26.17
32.01
38.23
45.22
53.10
61.73
70.70
79.51
87.63
94.61
100.06
103.60
104.89
103.69
100.00
94.13
86.69
78.48
70.27
62.61
55.74
49.61
43.96
38.55
33.28
28.20
23.54
19.65
16.93
15.69
16.10
18.04
21.14
24.73
27.94
29.94
30.09
28.10
23.93
17.61
9.05
-2.02
-15.87
-32.32
-50.42
-68.28
-83.57
-94.16
-99.01
-98.52
-94.34
-88.68
-83.34
-79.21
-76.17
-73.55
-70.67
-67.27
-63.58
-60.08
-57.25
-55.32
-54.31
-54.01
-54.06
-54.00
-53.30
-51.46
-48.12
-43.11
-36.54
-28.63
-19.77
-10.40
-1.09
7.46
14.56
19.64
22.54
23.59
23.50
23.10
22.99
23.40
24.13
24.80
25.07
24.86
24.29
23.61
22.99
22.43
21.76
20.76
19.30
17.36
15.05
12.53
9.95
7.40
4.96
2.70
0.59
-1.43
-3.59
-6.17
-9.44
-13.45
-17.90
-22.12
-25.22
-26.41
-25.25
-21.78
-16.50
-10.17
-3.51
2.94
8.89
14.23
18.89
22.77
25.75
27.71
28.67
28.77
28.31
27.67
27.16
27.00
27.18
27.54
27.85
27.93
27.76
27.42
27.02
26.61
26.13
25.46
24.52
23.35
22.07
20.78
19.39
17.71
15.46
12.49
8.82
4.64
0.19
-4.39
-9.08
-13.81
-18.36
-22.17
-24.43
-24.31
-21.29
-15.41
-7.29
2.05
11.47
20.09
27.38
33.28
38.13
42.50
47.03
52.20
58.19
64.69
71.05
76.40
79.94
81.25
80.32
77.42
72.95
67.26
60.60
53.13
44.97
36.11
26.42
15.61
3.45
-9.96
-24.09
-37.95
-50.48
-60.90
-69.01
-75.07
-79.54
-82.67
-84.35
-84.24
-82.19
-78.49
-73.90
-69.37
-65.72
-63.42
-62.56
-62.91
-63.95
-64.79
-64.22
-61.03
-54.49
-44.87
-33.50
-22.36
-13.27
-7.13
-3.71
-1.96
-0.74
0.62
2.14
3.49
4.35
4.77
4.99
5.24
5.51
5.43
4.52
2.42
-0.88
-5.11
-9.84
-14.68
-19.39
-23.91
-28.20
-32.17
-35.54
-37.92
-38.90
-38.23
-35.91
-32.17
-27.42
-22.07
-16.44
-10.72
-4.98
0.63
5.98
11.00
15.88
21.11
27.48
35.78
46.51
59.53
73.87
88.01
100.27
109.32
114.47
115.84
114.17
110.45
105.42
99.04
90.68
79.50
64.97
47.19
27.02
5.77
-15.17
-34.60
-52.09
-67.02
-78.37
-84.81
-85.43
-80.52
-71.61
-60.92
-50.50
-42.44
-37.42
-34.84
-33.46
-32.58
-32.43
-33.73
-36.75
-41.02
-46.82
-53.89
-61.50
-68.78
-75.49
-82.21
-89.90
-98.96
-109.34
-122.38
-138.61
-157.29
-176.44
-193.98
-208.62
-219.95
-227.77
-218.21
-182.97
-123.27
-50.79
19.65
77.23
117.09
138.96
148.72
151.88
150.82
146.84
140.71
133.42
125.16
116.39
107.77
100.38
94.92
89.99
83.92
75.55
65.06
53.61
42.78
33.91
27.90
24.58
22.19
18.90
13.72
7.00
0.02
-5.64
-8.75
-8.79
-6.19
-2.47
0.77
2.40
2.12
0.28
-2.34
-4.91
-6.68
-7.22
-6.52
-4.79
-2.34
0.59
3.78
7.03
10.18
13.10
15.64
17.65
18.94
19.32
18.66
16.96
14.47
11.58
8.83
6.64
5.24
4.67
4.80
5.50
6.61
7.98
9.35
10.39
10.81
10.47
9.45
8.05
6.62
5.40
4.46
3.72
3.05
2.38
1.76
1.33
1.26
1.70
2.72
4.22
6.00
7.74
9.16
10.12
10.64
10.89
11.08
11.38
11.84
12.46
13.20
14.06
15.03
16.07
17.07
17.84
18.16
17.94
17.22
16.19
15.07
13.95
12.71
11.03
8.50
4.81
-0.16
-6.29
-13.27
-20.65
-27.89
-34.30
-39.11
-41.55
-41.06
-37.49
-31.19
-22.97
-13.91
-5.03
2.97
9.78
15.42
20.09
23.91
26.92
29.08
30.38
30.92
30.91
30.54
29.86
28.74
26.93
24.20
20.49
15.97
11.01
6.04
1.42
-2.62
-6.05
-8.95
-11.43
-13.58
-15.39
-16.77
-17.63
-17.92
-17.67
-16.91
-15.67
-13.86
-11.33
-7.92
-3.54
1.69
7.47
13.33
18.74
23.23
26.46
28.23
28.47
27.19
24.46
20.43
15.45
10.00
4.74
0.30
-2.92
-4.81
-5.58
-5.64
-5.35
-4.91
-4.36
-3.65
-2.80
-1.98
-1.42
-1.38
-2.01
-3.29
-5.11
-7.29
-9.61
-11.80
-13.52
-14.35
-13.91
-12.02
-8.74
-4.43
0.36
5.05
9.16
12.38
14.59
15.84
16.24
15.98
15.28
14.43
13.71
13.39
13.63
14.41
15.51
16.63
17.46
17.84
17.74
17.26
16.54
15.63
14.55
13.25
11.66
9.75
7.46
4.72
1.41
-2.55
-7.23
-12.58
-18.47
-24.64
-30.75
-36.32
-40.82
-43.62
-44.21
-42.32
-38.00
-31.73
-24.28
-16.49
-9.12
-2.63
2.81
7.21
10.64
13.17
14.82
15.66
15.81
15.44
14.77
13.95
13.06
12.12
11.04
9.77
8.22
6.34
4.12
1.64
-0.94
-3.38
-5.45
-6.96
-7.83
-8.07
-7.75
-7.02
-6.10
-5.28
-4.85
-5.00
-5.68
-6.54
-7.02
-6.55
-4.73
-1.52
2.70
7.30
11.57
14.95
17.13
18.05
17.81
16.56
14.43
11.54
8.05
4.23
0.40
-3.05
-5.85
-7.85
-9.08
-9.69
-9.82
-9.54
-8.86
-7.74
-6.19
-4.36
-2.51
-1.03
-0.25
-0.41
-1.49
-3.30
-5.54
-7.93
-10.32
-12.69
-15.10
-17.51
-19.71
-21.34
-21.95
-21.23
-19.14
-15.95
-12.21
-8.51
-5.27
-2.57
-0.16
2.28
4.94
7.72
10.26
12.16
13.22
13.50
13.29
12.94
12.68
12.61
12.71
12.91
13.14
13.23
12.93
11.89
9.82
6.62
2.44
-2.30
-7.07
-11.42
-15.10
-18.08
-20.56
-22.84
-25.17
-27.57
-29.76
-31.20
-31.28
-29.62
-26.17
-21.28
-15.52
-9.51
-3.74
1.49
6.01
9.71
12.52
14.45
15.61
16.18
16.36
16.30
16.02
15.44
14.43
12.85
10.62
7.77
4.43
0.85
-2.72
-5.99
-8.77
-10.92
-12.34
-13.01
-12.98
-12.36
-11.43
-10.54
-10.06
-10.22
-11.01
-12.10
-12.98
-13.03
-11.82
-9.19
-5.36
-0.91
3.35
6.63
8.29
8.12
6.27
3.24
-0.28
-3.60
-6.19
-7.76
-8.27
-7.90
-6.91
-5.57
-4.06
-2.41
-0.62
1.32
3.32
5.16
6.55
7.25
7.18
6.45
5.32
4.10
3.01
2.18
1.55
0.93
0.04
-1.41
-3.56
-6.31
-9.31
-12.02
-13.90
-14.58
-14.00
-12.34
-9.93
-7.09
-4.06
-0.96
2.15
5.16
7.91
10.21
11.95
13.11
13.78
14.12
14.28
14.41
14.60
14.90
15.32
15.85
16.44
17.02
17.46
17.54
17.00
15.59
13.11
9.50
4.87
-0.56
-6.47
-12.50
-18.30
-23.53
-27.85
-30.91
-32.40
-32.08
-29.84
-25.73
-19.93
-12.80
-4.83
3.34
10.98
17.35
21.86
24.14
24.24
22.59
19.94
17.17
15.09
14.18
14.52
15.74
17.21
18.24
18.30
17.15
14.87
11.67
7.87
3.73
-0.52
-4.67
-8.46
-11.68
-14.19
-15.97
-17.17
-18.01
-18.72
-19.45
-20.23
-20.86
-21.07
-20.45
-18.68
-15.62
-11.37
-6.32
-0.95
4.23
8.92
12.98
16.35
19.00
20.81
21.64
21.37
20.07
17.92
15.26
12.47
9.85
7.60
5.81
4.46
3.47
2.76
2.29
2.08
2.23
2.80
3.78
5.03
6.24
7.08
7.25
6.63
5.28
3.47
1.60
0.08
-0.71
-0.59
0.41
2.02
3.92
5.75
7.31
8.51
9.34
9.77
9.69
8.92
7.34
5.01
2.19
-0.64
-2.99
-4.47
-4.94
-4.53
-3.49
-2.15
-0.74
0.61
1.86
3.03
4.10
5.01
5.66
5.92
5.62
4.55
2.49
-0.71
-5.02
-10.09
-15.26
-19.67
-22.46
-23.12
-21.53
-18.07
-13.42
-8.34
-3.44
0.91
4.56
7.50
9.73
11.24
12.04
12.17
11.82
11.22
10.56
9.95
9.31
8.47
7.22
5.43
3.09
0.33
-2.63
-5.58
-8.30
-10.65
-12.56
-14.04
-15.21
-16.26
-17.43
-18.97
-20.96
-23.24
-25.41
-26.85
-26.95
-25.31
-21.89
-17.07
-11.46
-5.71
-0.34
4.32
8.16
11.13
13.20
14.36
14.64
14.19
13.27
12.16
11.06
10.05
9.11
8.16
7.15
6.08
5.02
4.06
3.26
2.67
2.22
1.80
1.23
0.30
-1.15
-3.19
-5.78
-8.76
-11.88
-14.82
-17.17
-18.52
-18.55
-17.12
-14.37
-10.71
-6.64
-2.63
1.00
4.14
6.82
9.04
10.78
11.92
12.40
12.25
11.62
10.76
9.91
9.29
8.99
9.06
9.45
10.08
10.79
11.37
11.59
11.25
10.21
8.48
6.14
3.31
0.09
-3.51
-7.49
-11.82
-16.28
-20.44
-23.68
-25.42
-25.22
-23.05
-19.25
-14.47
-9.40
-4.62
-0.46
2.96
5.63
7.58
8.80
9.31
9.25
8.89
8.51
8.33
8.35
8.37
8.12
7.39
6.25
4.96
3.93
3.47
3.63
4.13
4.46
4.01
2.32
-0.77
-5.09
-10.08
-14.99
-19.00
-21.39
-21.76
-20.03
-16.48
-11.61
-6.06
-0.42
4.82
9.33
12.88
15.38
16.82
17.27
16.91
15.98
14.82
13.74
12.97
12.55
12.34
12.08
11.46
10.23
8.27
5.59
2.32
-1.39
-5.37
-9.52
-13.79
-18.12
-22.42
-26.37
-29.50
-31.21
-31.02
-28.75
-24.68
-19.46
-13.89
-8.63
-4.05
-0.11
3.39
6.65
9.72
12.41
14.44
15.64
15.99
15.66
14.88
13.83
12.59
11.13
9.42
7.53
5.58
3.78
2.25
0.98
-0.19
-1.49
-3.17
-5.37
-8.14
-11.35
-14.70
-17.71
-19.80
-20.41
-19.14
-15.97
-11.27
-5.74
-0.23
4.55
8.18
10.60
11.98
12.50
12.30
11.44
10.00
8.24
6.55
5.34
4.79
4.78
4.88
4.57
3.49
1.60
-0.87
-3.52
-6.00
-8.10
-9.79
-11.19
-12.50
-13.97
-15.81
-18.10
-20.67
-23.11
-24.80
-25.10
-23.62
-20.31
-15.46
-9.60
-3.28
3.02
8.92
14.13
18.39
21.52
23.39
24.04
23.65
22.52
21.05
19.59
18.38
17.45
16.63
15.66
14.25
12.30
9.90
7.34
4.93
2.90
1.24
-0.21
-1.75
-3.62
-5.96
-8.72
-11.71
-14.59
-17.00
-18.58
-19.01
-18.08
-15.69
-11.98
-7.23
-1.91
3.44
8.29
12.21
14.89
16.10
15.74
13.82
10.58
6.49
2.21
-1.49
-3.99
-5.03
-4.74
-3.62
-2.34
-1.46
-1.31
-1.91
-3.05
-4.47
-5.93
-7.39
-8.91
-10.64
-12.63
-14.80
-16.92
-18.64
-19.63
-19.64
-18.62
-16.63
-13.87
-10.55
-6.87
-3.03
0.76
4.28
7.29
9.56
10.95
11.46
11.22
10.43
9.33
8.10
6.87
5.76
4.86
4.30
4.13
4.30
4.58
4.66
4.23
3.09
1.18
-1.43
-4.57
-8.02
-11.46
-14.47
-16.59
-17.41
-16.67
-14.34
-10.67
-6.05
-0.97
4.15
8.95
13.19
16.71
19.43
21.30
22.30
22.38
21.54
19.87
17.57
14.99
12.51
10.43
8.82
7.60
6.53
5.35
3.92
2.23
0.39
-1.45
-3.16
-4.70
-6.13
-7.52
-8.96
-10.42
-11.81
-12.90
-13.44
-13.18
-11.93
-9.59
-6.17
-1.85
3.02
7.94
12.36
15.81
18.02
18.95
18.77
17.73
16.08
14.05
11.86
9.78
8.09
6.99
6.48
6.35
6.21
5.64
4.38
2.42
0.01
-2.46
-4.61
-6.20
-7.25
-7.94
-8.52
-9.26
-10.34
-11.83
-13.67
-15.61
-17.21
-17.89
-17.07
-14.39
-9.93
-4.24
1.82
7.33
11.61
14.41
15.84
16.25
16.02
15.47
14.81
14.18
13.67
13.32
13.10
12.95
12.80
12.59
12.25
11.70
10.84
9.56
7.82
5.71
3.45
1.28
-0.58
-2.08
-3.33
-4.54
-6.00
-7.99
-10.71
-14.16
-17.99
-21.50
-23.70
-23.64
-20.78
-15.19
-7.64
0.66
8.40
14.59
18.67
20.59
20.71
19.57
17.81
16.03
14.64
13.78
13.26
12.70
11.64
9.81
7.24
4.29
1.52
-0.54
-1.53
-1.43
-0.49
0.85
2.11
2.91
3.04
2.45
1.25
-0.39
-2.21
-3.98
-5.56
-6.94
-8.25
-9.74
-11.61
-13.88
-16.32
-18.46
-19.74
-19.71
-18.16
-15.23
-11.34
-7.02
-2.82
0.86
3.81
6.02
7.68
9.05
10.37
11.74
13.08
14.16
14.65
14.30
13.03
11.00
8.50
5.93
3.64
1.85
0.61
-0.18
-0.72
-1.22
-1.87
-2.74
-3.80
-4.91
-5.93
-6.72
-7.24
-7.57
-7.89
-8.40
-9.17
-10.10
-10.87
-11.08
-10.38
-8.58
-5.79
-2.32
1.39
4.88
7.77
9.80
10.89
11.11
10.63
9.74
8.74
7.88
7.34
7.16
7.29
7.53
7.62
7.30
6.40
4.93
3.09
1.17
-0.55
-1.91
-2.90
-3.66
-4.38
-5.20
-6.24
-7.57
-9.27
-11.34
-13.66
-15.93
-17.67
-18.40
-17.76
-15.68
-12.42
-8.49
-4.41
-0.65
2.57
5.19
7.24
8.79
9.82
10.28
10.13
9.38
8.12
6.55
4.88
3.40
2.31
1.74
1.70
2.04
2.49
2.78
2.66
1.99
0.79
-0.81
-2.67
-4.62
-6.50
-8.17
-9.51
-10.43
-10.92
-11.08
-11.04
-10.94
-10.75
-10.29
-9.28
-7.47
-4.83
-1.59
1.79
4.79
6.98
8.15
8.29
7.54
6.04
4.00
1.64
-0.74
-2.79
-4.19
-4.78
-4.61
-3.89
-2.88
-1.72
-0.45
0.99
2.60
4.23
5.59
6.30
6.05
4.71
2.30
-0.97
-4.80
-8.84
-12.67
-15.87
-18.06
-18.97
-18.54
-16.92
-14.44
-11.47
-8.34
-5.27
-2.41
0.19
2.49
4.48
6.15
7.45
8.28
8.54
8.13
7.11
5.67
4.13
2.84
1.98
1.56
1.43
1.39
1.31
1.14
0.93
0.74
0.59
0.45
0.27
-0.02
-0.51
-1.35
-2.72
-4.75
-7.49
-10.74
-14.11
-16.97
-18.62
-18.49
-16.33
-12.31
-6.98
-1.13
4.47
9.28
13.04
15.73
17.46
18.33
18.34
17.52
15.95
13.80
11.29
8.65
6.02
3.47
1.00
-1.39
-3.66
-5.79
-7.75
-9.55
-11.17
-12.52
-13.46
-13.81
-13.47
-12.48
-11.02
-9.41
-8.01
-7.15
-7.05
-7.80
-9.30
-11.28
-13.24
-14.59
-14.78
-13.43
-10.57
-6.58
-2.10
2.20
5.77
8.34
9.86
10.43
10.21
9.36
8.08
6.58
5.09
3.81
2.91
2.42
2.31
2.47
2.70
2.81
2.64
2.10
1.24
0.19
-0.91
-1.99
-3.12
-4.47
-6.16
-8.17
-10.31
-12.31
-13.92
-15.06
-15.81
-16.24
-16.29
-15.71
-14.14
-11.31
-7.24
-2.34
2.76
7.37
11.01
13.54
15.08
15.90
16.23
16.25
16.01
15.56
15.00
14.43
13.97
13.64
13.37
13.03
12.45
11.52
10.17
8.41
6.29
3.91
1.42
-1.11
-3.61
-6.08
-8.56
-11.07
-13.55
-15.94
-18.11
-20.04
-21.76
-23.36
-24.88
-26.27
-27.34
-27.84
-27.54
-26.39
-24.46
-21.93
-19.08
-16.14
-13.36
-10.95
-9.08
-7.89
-7.43
-7.64
-8.39
-9.52
-10.86
-12.24
-13.50
-14.49
-15.01
-14.96
-14.32
-13.23
-11.94
-10.74
-9.81
-9.17
-8.65
-7.98
-6.88
-5.18
-2.85
0.06
3.40
7.04
10.77
14.31
17.31
19.36
20.16
19.60
17.95
15.76
13.78
12.72
13.09
15.09
18.59
23.17
28.21
33.03
36.99
39.59
40.54
39.85
37.77
34.78
31.41
28.15
25.27
22.74
20.27
17.45
13.93
9.70
5.17
1.00
-2.13
-3.81
-4.08
-3.31
-1.97
-0.39
1.31
3.15
5.09
6.92
8.32
8.98
8.78
7.76
6.08
3.80
0.86
-2.82
-7.17
-11.82
-16.11
-19.21
-20.41
-19.32
-16.01
-11.06
-5.34
0.11
4.48
7.35
8.85
9.54
10.18
11.42
13.59
16.63
20.19
23.90
27.51
30.93
34.18
37.28
40.17
42.72
44.82
46.42
47.54
48.24
48.53
48.34
47.53
45.94
43.47
40.11
35.90
30.85
24.94
18.09
10.28
1.53
-7.97
-17.87
-27.67
-36.80
-44.65
-50.68
-54.55
-56.12
-55.50
-53.03
-49.14
-44.36
-39.19
-34.05
-29.27
-25.06
-21.46
-18.39
-15.69
-13.17
-10.72
-8.30
-5.91
-3.57
-1.33
0.79
2.74
4.46
5.84
6.81
7.34
7.42
7.11
6.49
5.62
4.52
3.19
1.68
0.07
-1.51
-2.95
-4.25
-5.58
-7.29
-9.77
-13.24
-17.53
-22.09
-26.05
-28.54
-28.97
-27.29
-23.89
-19.46
-14.73
-10.23
-6.27
-3.01
-0.53
1.06
1.74
1.59
0.88
0.03
-0.57
-0.65
-0.18
0.60
1.37
1.86
2.01
1.97
2.03
2.44
3.25
4.21
4.90
4.85
3.79
1.70
-1.15
-4.29
-7.22
-9.53
-11.02
-11.74
-12.03
-12.43
-13.47
-15.48
-18.41
-21.75
-24.69
-26.37
-26.20
-24.05
-20.21
-15.21
-9.65
-3.99
1.47
6.52
10.94
14.48
16.95
18.29
18.67
18.43
17.94
17.45
17.04
16.62
16.13
15.58
15.07
14.68
14.32
13.70
12.41
10.13
6.84
2.86
-1.18
-4.64
-7.05
-8.29
-8.56
-8.29
-7.92
-7.82
-8.14
-8.87
-9.87
-10.90
-11.74
-12.20
-12.14
-11.51
-10.33
-8.67
-6.65
-4.44
-2.21
-0.11
1.76
3.42
4.91
6.28
7.50
8.44
8.96
8.96
8.52
7.84
7.17
6.69
6.43
6.28
6.09
5.72
5.13
4.36
3.46
2.43
1.25
-0.12
-1.68
-3.37
-5.09
-6.70
-8.13
-9.32
-10.32
-11.19
-12.03
-12.91
-13.86
-14.83
-15.65
-16.07
-15.79
-14.57
-12.27
-8.95
-4.87
-0.43
3.96
8.01
11.52
14.46
16.81
18.57
19.67
20.04
19.74
18.94
17.97
17.21
16.95
17.28
18.08
19.02
19.71
19.77
18.98
17.29
14.81
11.78
8.44
4.97
1.44
-2.09
-5.55
-8.76
-11.50
-13.58
-14.93
-15.57
-15.62
-15.19
-14.43
-13.54
-12.83
-12.65
-13.25
-14.69
-16.69
-18.71
-20.11
-20.38
-19.22
-16.62
-12.82
-8.23
-3.31
1.47
5.69
9.09
11.52
13.02
13.70
13.77
13.45
12.91
12.27
11.54
10.74
9.83
8.85
7.90
7.10
6.57
6.38
6.52
6.97
7.63
8.41
9.14
9.59
9.49
8.70
7.23
5.35
3.49
2.06
1.25
0.99
0.89
0.46
-0.70
-2.78
-5.75
-9.39
-13.39
-17.45
-21.17
-24.08
-25.66
-25.45
-23.19
-18.99
-13.34
-6.99
-0.78
4.62
8.86
11.95
14.10
15.60
16.64
17.22
17.23
16.57
15.29
13.62
11.96
10.64
9.86
9.58
9.57
9.54
9.30
8.82
8.23
7.71
7.47
7.59
8.05
8.74
9.45
9.90
9.79
8.85
6.87
3.83
-0.13
-4.75
-9.72
-14.73
-19.55
-23.98
-27.82
-30.81
-32.63
-33.03
-31.84
-29.14
-25.19
-20.44
-15.35
-10.32
-5.62
-1.35
2.48
5.88
8.81
11.16
12.82
13.70
13.83
13.38
12.64
11.91
11.45
11.38
11.67
12.15
12.60
12.85
12.82
12.59
12.32
12.17
12.18
12.26
12.13
11.44
9.89
7.37
3.97
0.03
-4.05
-7.85
-11.09
-13.65
-15.57
-16.99
-18.13
-19.22
-20.44
-21.83
-23.25
-24.38
-24.78
-23.99
-21.73
-17.98
-12.98
-7.25
-1.40
3.96
8.43
11.75
13.90
15.03
15.34
15.09
14.53
13.89
13.35
13.07
13.12
13.48
14.06
14.73
15.40
16.04
16.69
17.41
18.24
19.07
19.64
19.62
18.66
16.58
13.48
9.71
5.75
2.11
-0.94
-3.32
-5.17
-6.71
-8.13
-9.54
-10.94
-12.30
-13.61
-14.93
-16.38
-18.14
-20.36
-23.10
-26.15
-29.08
-31.29
-32.12
-31.14
-28.25
-23.78
-18.34
-12.67
-7.43
-2.97
0.61
3.45
5.79
7.80
9.55
10.98
11.98
12.50
12.62
12.51
12.38
12.40
12.60
12.96
13.39
13.84
14.26
14.60
14.74
14.56
13.95
12.87
11.38
9.58
7.64
5.73
4.03
2.69
1.77
1.25
0.92
0.52
-0.18
-1.32
-2.89
-4.77
-6.87
-9.17
-11.69
-14.37
-16.95
-18.99
-19.93
-19.35
-17.15
-13.61
-9.33
-5.07
-1.48
1.06
2.53
3.16
3.34
3.46
3.80
4.50
5.58
6.94
8.41
9.79
10.84
11.32
11.04
9.93
8.08
5.79
3.48
1.60
0.45
0.10
0.32
0.73
0.86
0.41
-0.73
-2.43
-4.45
-6.52
-8.47
-10.30
-12.11
-14.06
-16.28
-18.75
-21.26
-23.39
-24.66
-24.61
-23.00
-19.83
-15.37
-10.06
-4.44
0.94
5.63
9.33
11.97
13.75
15.00
16.03
17.02
17.88
18.38
18.29
17.51
16.18
14.56
12.91
11.40
10.06
8.94
8.06
7.49
7.22
7.11
6.93
6.39
5.34
3.83
2.12
0.54
-0.61
-1.26
-1.56
-1.81
-2.39
-3.60
-5.54
-8.08
-10.83
-13.23
-14.72
-14.89
-13.61
-11.11
-7.80
-4.21
-0.78
2.25
4.86
7.17
9.35
11.48
13.47
15.14
16.22
16.53
15.97
14.65
12.75
10.58
8.40
6.44
4.87
3.77
3.13
2.84
2.72
2.55
2.10
1.18
-0.25
-2.12
-4.27
-6.45
-8.46
-10.19
-11.66
-13.02
-14.46
-16.18
-18.30
-20.75
-23.26
-25.34
-26.44
-26.07
-24.01
-20.42
-15.77
-10.65
-5.62
-0.96
3.26
7.10
10.58
13.53
15.69
16.76
16.64
15.44
13.48
11.18
8.92
6.98
5.54
4.66
4.35
4.52
4.97
5.47
5.73
5.60
5.04
4.13
3.02
1.85
0.64
-0.67
-2.19
-4.07
-6.37
-9.07
-11.96
-14.68
-16.74
-17.62
-16.99
-14.79
-11.34
-7.23
-3.13
0.38
3.01
4.79
5.97
6.88
7.80
8.86
9.96
10.87
11.28
10.95
9.81
8.03
5.99
4.10
2.67
1.77
1.25
0.82
0.25
-0.57
-1.59
-2.72
-3.92
-5.27
-6.85
-8.74
-10.91
-13.27
-15.70
-18.09
-20.30
-22.08
-23.08
-22.90
-21.25
-18.08
-13.68
-8.54
-3.24
1.73
6.01
9.39
11.76
13.12
13.59
13.47
13.12
12.90
12.98
13.29
13.52
13.30
12.39
10.75
8.58
6.21
3.93
1.94
0.28
-1.06
-2.17
-3.12
-3.97
-4.81
-5.72
-6.80
-8.19
-10.00
-12.33
-15.21
-18.56
-22.18
-25.70
-28.65
-30.63
-31.39
-30.94
-29.50
-27.43
-25.08
-22.72
-20.48
-18.39
-16.42
-14.55
-12.72
-10.88
-8.99
-7.09
-5.29
-3.78
-2.73
-2.14
-1.87
-1.55
-0.82
0.55
2.55
4.99
7.54
9.97
12.17
14.17
16.03
17.69
18.99
19.66
19.56
18.74
17.46
16.12
15.07
14.41
14.02
13.64
13.11
12.47
12.11
12.56
14.31
17.52
21.96
27.12
32.47
37.61
42.31
46.40
49.65
51.74
52.44
51.83
50.33
48.57
47.02
45.70
44.20
42.02
38.96
35.40
32.16
30.10
29.63
30.47
31.87
32.95
33.10
32.16
30.31
27.83
24.88
21.43
17.31
12.27
6.13
-1.13
-9.32
-18.00
-26.49
-34.02
-39.87
-43.61
-45.23
-45.06
-43.63
-41.42
-38.77
-35.86
-32.85
-29.97
-27.57
-25.98
-25.36
-25.59
-26.22
-26.66
-26.36
-25.02
-22.74
-19.93
-17.18
-15.10
-14.12
-14.41
-15.93
-18.49
-21.89
-25.88
-30.26
-34.86
-39.53
-44.17
-48.72
-53.15
-57.49
-61.76
-66.00
-70.22
-74.47
-78.70
-82.78
-86.47
-89.35
-90.97
-90.83
-88.46
-83.54
-75.94
-65.79
-53.49
-39.69
-25.17
-10.68
3.18
15.97
27.50
37.77
46.90
55.08
62.52
69.31
75.47
80.89
85.44
88.99
91.48
92.92
93.43
93.17
92.33
91.15
89.82
88.43
86.99
85.43
83.70
81.84
80.00
78.41
77.30
76.76
76.66
76.57
75.87
73.90
70.22
64.78
57.94
50.36
42.77
35.71
29.43
23.88
18.82
14.04
9.44
5.19
1.70
-0.53
-1.05
0.32
3.34
7.44
11.86
15.90
19.11
21.32
22.52
22.68
21.66
19.29
15.44
10.17
3.75
-3.44
-11.05
-18.77
-26.42
-33.81
-40.72
-46.81
-51.75
-55.34
-57.57
-58.66
-59.01
-59.03
-58.98
-58.92
-58.70
-58.03
-56.64
-54.45
-51.64
-48.58
-45.74
-43.46
-41.83
-40.70
-39.72
-38.59
-37.18
-35.59
-34.15
-33.22
-33.15
-34.12
-36.10
-38.83
-41.77
-44.22
-45.43
-44.80
-42.05
-37.33
-31.14
-24.18
-17.17
-10.69
-5.14
-0.71
2.56
4.75
6.10
6.90
7.46
7.99
8.62
9.34
10.06
10.68
11.08
11.18
10.93
10.39
9.66
8.92
8.25
7.66
6.98
6.01
4.55
2.58
0.20
-2.33
-4.72
-6.72
-8.17
-9.04
-9.43
-9.65
-10.11
-11.30
-13.60
-17.18
-21.86
-27.07
-31.99
-35.67
-37.33
-36.48
-33.11
-27.66
-20.90
-13.75
-7.00
-1.21
3.38
6.81
9.24
10.93
12.11
13.00
13.77
14.54
15.34
16.11
16.73
17.07
17.08
16.79
16.34
15.88
15.53
15.28
15.05
14.72
14.17
13.33
12.16
10.64
8.81
6.79
4.73
2.85
1.28
0.03
-1.08
-2.33
-4.02
-6.35
-9.36
-12.95
-16.92
-21.02
-24.95
-28.34
-30.76
-31.71
-30.80
-27.83
-22.93
-16.59
-9.50
-2.41
4.08
9.63
14.17
17.74
20.42
22.25
23.26
23.50
23.12
22.34
21.41
20.48
19.63
18.82
18.01
17.19
16.36
15.60
14.95
14.36
13.73
12.87
11.63
9.94
7.83
5.45
2.98
0.62
-1.47
-3.20
-4.49
-5.41
-6.09
-6.80
-7.84
-9.46
-11.75
-14.63
-17.84
-21.05
-23.90
-26.02
-27.03
-26.61
-24.55
-20.89
-15.96
-10.32
-4.63
0.56
4.90
8.27
10.73
12.39
13.35
13.68
13.48
12.83
11.86
10.65
9.30
7.90
6.57
5.47
4.74
4.48
4.72
5.35
6.23
7.16
7.95
8.40
8.36
7.72
6.53
4.97
3.39
2.10
1.29
0.88
0.55
-0.17
-1.69
-4.26
-7.86
-12.20
-16.79
-21.01
-24.23
-25.85
-25.52
-23.15
-18.96
-13.47
-7.36
-1.35
3.99
8.30
11.48
13.64
15.03
15.91
16.46
16.75
16.82
16.66
16.26
15.63
14.80
13.77
12.62
11.42
10.29
9.36
8.67
8.15
7.66
7.01
6.08
4.93
3.78
2.95
2.71
3.11
3.89
4.52
4.32
2.66
-0.81
-5.98
-12.28
-18.75
-24.21
-27.61
-28.27
-26.07
-21.51
-15.44
-8.84
-2.51
3.12
7.84
11.67
14.61
16.65
17.79
18.13
17.85
17.21
16.42
15.54
14.55
13.36
11.92
10.31
8.68
7.23
6.07
5.23
4.64
4.21
3.83
3.41
2.85
2.10
1.20
0.26
-0.52
-1.01
-1.23
-1.43
-2.00
-3.38
-5.84
-9.41
-13.79
-18.47
-22.76
-26.00
-27.63
-27.34
-25.15
-21.37
-16.52
-11.22
-6.00
-1.24
2.83
6.11
8.59
10.29
11.28
11.72
11.75
11.53
11.20
10.86
10.57
10.40
10.35
10.39
10.39
10.17
9.54
8.36
6.59
4.33
1.80
-0.67
-2.77
-4.21
-4.85
-4.78
-4.31
-3.93
-4.17
-5.39
-7.71
-10.86
-14.25
-17.12
-18.68
-18.34
-15.80
-11.15
-4.84
2.41
9.80
16.61
22.32
26.61
29.39
30.68
30.60
29.34
27.13
24.27
21.05
17.72
14.50
11.57
9.05
7.00
5.44
4.32
3.49
2.78
2.00
1.03
-0.18
-1.64
-3.29
-5.07
-6.93
-8.86
-10.90
-13.01
-15.12
-17.03
-18.42
-18.97
-18.39
-16.62
-13.79
-10.24
-6.39
-2.67
0.61
3.30
5.36
6.90
8.04
8.91
9.56
9.89
9.77
9.06
7.73
5.99
4.19
2.73
1.93
1.86
2.33
3.01
3.57
3.79
3.62
3.17
2.57
1.93
1.27
0.48
-0.66
-2.38
-4.87
-8.18
-12.14
-16.31
-20.05
-22.58
-23.21
-21.48
-17.33
-11.19
-3.89
3.55
10.12
15.08
18.12
19.33
19.08
17.82
16.00
13.96
11.94
10.13
8.68
7.66
7.03
6.66
6.33
5.85
5.06
3.97
2.69
1.44
0.44
-0.19
-0.53
-0.83
-1.50
-2.89
-5.21
-8.36
-12.04
-15.80
-19.23
-22.00
-23.89
-24.67
-24.18
-22.31
-19.11
-14.82
-9.84
-4.63
0.49
5.31
9.71
13.59
16.68
18.64
19.14
18.07
15.62
12.28
8.67
5.33
2.60
0.54
-0.93
-1.98
-2.69
-3.09
-3.18
-3.06
-2.95
-3.09
-3.69
-4.85
-6.53
-8.63
-11.02
-13.58
-16.08
-18.19
-19.45
-19.41
-17.81
-14.67
-10.35
-5.39
-0.35
4.33
8.36
11.57
13.87
15.24
15.80
15.84
15.71
15.71
15.92
16.20
16.19
15.57
14.20
12.12
9.57
6.83
4.16
1.72
-0.33
-1.90
-2.95
-3.58
-4.08
-4.81
-6.09
-8.11
-10.80
-13.96
-17.26
-20.39
-22.98
-24.63
-24.93
-23.55
-20.44
-15.86
-10.39
-4.72
0.58
5.21
9.18
12.68
15.91
18.95
21.69
23.90
25.28
25.65
24.95
23.29
20.95
18.29
15.67
13.36
11.51
10.18
9.36
8.95
8.81
8.68
8.27
7.31
5.67
3.41
0.72
-2.11
-4.85
-7.33
-9.55
-11.55
-13.44
-15.33
-17.30
-19.38
-21.51
-23.52
-25.17
-26.16
-26.24
-25.24
-23.03
-19.56
-14.85
-9.05
-2.49
4.29
10.64
15.91
19.63
21.61
21.95
20.95
19.02
16.54
13.80
10.97
8.14
5.36
2.70
0.29
-1.69
-3.05
-3.66
-3.58
-3.02
-2.34
-1.90
-1.91
-2.33
-2.91
-3.34
-3.35
-2.90
-2.11
-1.31
-0.87
-1.19
-2.54
-4.99
-8.28
-11.81
-14.75
-16.20
-15.56
-12.68
-7.97
-2.29
3.34
8.04
11.22
12.70
12.61
11.28
9.08
6.37
3.51
0.85
-1.29
-2.62
-3.07
-2.74
-1.94
-1.06
-0.39
-0.01
0.21
0.52
1.19
2.32
3.83
5.45
6.88
7.80
8.02
7.50
6.23
4.27
1.57
-1.96
-6.35
-11.40
-16.56
-20.99
-23.75
-24.16
-22.08
-17.93
-12.52
-6.76
-1.37
3.29
7.09
10.07
12.20
13.46
13.87
13.60
13.02
12.59
12.67
13.39
14.54
15.73
16.53
16.70
16.25
15.37
14.25
12.96
11.43
9.45
6.92
3.89
0.58
-2.76
-5.98
-9.13
-12.38
-15.88
-19.69
-23.69
-27.66
-31.33
-34.47
-36.74
-37.78
-37.15
-34.56
-30.07
-24.13
-17.50
-10.95
-4.93
0.53
5.67
10.75
15.68
20.09
23.42
25.32
25.80
25.22
24.05
22.62
20.95
18.81
15.95
12.32
8.21
4.17
0.83
-1.39
-2.43
-2.61
-2.45
-2.46
-2.89
-3.75
-4.81
-5.86
-6.79
-7.67
-8.70
-10.09
-11.95
-14.26
-16.82
-19.31
-21.33
-22.39
-22.11
-20.27
-16.88
-12.19
-6.66
-0.77
5.02
10.30
14.76
18.15
20.27
21.10
20.76
19.54
17.83
16.01
14.32
12.87
11.67
10.66
9.79
9.02
8.28
7.51
6.64
5.61
4.40
3.00
1.47
-0.13
-1.75
-3.36
-4.93
-6.50
-8.11
-9.86
-11.81
-13.98
-16.21
-18.17
-19.33
-19.14
-17.15
-13.28
-7.80
-1.36
5.23
11.24
16.17
19.77
22.01
22.96
22.73
21.48
19.44
16.91
14.20
11.56
9.12
6.87
4.73
2.67
0.71
-1.04
-2.46
-3.49
-4.15
-4.55
-4.81
-5.01
-5.24
-5.55
-5.98
-6.61
-7.51
-8.70
-10.20
-11.97
-13.99
-16.17
-18.34
-20.15
-21.14
-20.86
-19.04
-15.74
-11.36
-6.52
-1.88
2.01
4.87
6.61
7.37
7.41
7.04
6.56
6.17
5.89
5.55
4.93
3.87
2.40
0.75
-0.74
-1.78
-2.25
-2.24
-1.99
-1.80
-1.88
-2.31
-3.05
-4.01
-5.11
-6.35
-7.79
-9.54
-11.66
-14.15
-16.89
-19.65
-22.10
-23.83
-24.43
-23.55
-21.00
-16.88
-11.51
-5.46
0.68
6.41
11.39
15.51
18.78
21.27
23.02
24.04
24.33
23.92
22.94
21.54
19.90
18.16
16.38
14.54
12.64
10.67
8.71
6.87
5.30
4.10
3.25
2.61
1.95
1.04
-0.32
-2.20
-4.56
-7.28
-10.22
-13.33
-16.61
-20.05
-23.52
-26.67
-28.96
-29.77
-28.64
-25.39
-20.23
-13.75
-6.70
0.19
6.35
11.44
15.28
17.86
19.25
19.56
19.04
17.96
16.65
15.40
14.41
13.75
13.35
13.07
12.74
12.30
11.80
11.37
11.17
11.21
11.31
11.09
10.14
8.21
5.33
1.89
-1.59
-4.63
-7.00
-8.84
-10.49
-12.35
-14.72
-17.62
-20.86
-24.06
-26.76
-28.50
-28.86
-27.54
-24.46
-19.76
-13.90
-7.55
-1.47
3.64
7.33
9.52
10.43
10.51
10.20
9.83
9.56
9.38
9.28
9.23
9.23
9.26
9.24
9.08
8.72
8.20
7.70
7.39
7.33
7.40
7.28
6.65
5.34
3.45
1.29
-0.74
-2.32
-3.37
-4.05
-4.70
-5.63
-7.05
-8.92
-10.93
-12.54
-13.21
-12.51
-10.36
-7.01
-2.98
1.15
4.91
8.01
10.36
11.96
12.84
13.04
12.64
11.79
10.72
9.65
8.76
8.08
7.54
7.04
6.46
5.82
5.17
4.67
4.40
4.36
4.44
4.40
4.03
3.18
1.84
0.11
-1.81
-3.74
-5.56
-7.24
-8.81
-10.39
-12.11
-14.09
-16.33
-18.70
-20.91
-22.52
-23.10
-22.28
-19.92
-16.16
-11.43
-6.29
-1.33
3.00
6.44
8.96
10.69
11.77
12.34
12.51
12.33
11.87
11.21
10.47
9.75
9.16
8.73
8.44
8.24
8.03
7.78
7.46
7.09
6.65
6.09
5.29
4.13
2.57
0.69
-1.36
-3.35
-5.10
-6.53
-7.69
-8.74
-9.90
-11.38
-13.32
-15.68
-18.21
-20.45
-21.84
-21.83
-20.09
-16.64
-11.87
-6.39
-0.93
3.95
7.87
10.76
12.69
13.83
14.32
14.27
13.76
12.92
11.96
11.08
10.45
10.10
9.96
9.87
9.71
9.42
9.01
8.50
7.90
7.21
6.42
5.52
4.54
3.46
2.23
0.78
-0.90
-2.77
-4.68
-6.45
-7.97
-9.26
-10.44
-11.70
-13.25
-15.17
-17.48
-20.02
-22.53
-24.67
-26.10
-26.51
-25.75
-23.82
-20.85
-17.07
-12.77
-8.29
-4.02
-0.36
2.33
3.86
4.32
4.10
3.81
4.15
5.71
8.77
13.27
18.79
24.69
30.23
34.83
38.23
40.59
42.45
44.48
47.14
50.45
53.89
56.53
57.42
55.90
51.85
45.71
38.27
30.37
22.60
15.16
7.81
0.10
-8.41
-17.84
-27.86
-37.62
-45.98
-51.71
-53.87
-52.01
-46.35
-37.74
-27.55
-17.03
-7.34
0.93
7.75
13.60
19.14
24.90
31.04
37.20
42.97
47.75
51.12
52.85
52.94
51.46
48.59
44.54
39.45
34.06
28.86
24.17
19.85
15.30
9.57
1.86
-8.12
-20.40
-32.79
-43.27
-49.83
-51.18
-47.06
-38.44
-26.99
-14.51
-3.67
6.40
15.89
25.48
35.96
47.96
61.82
77.59
94.92
110.78
125.71
137.31
142.92
140.28
128.26
106.95
77.80
43.14
2.78
-38.11
-77.88
-115.41
-149.86
-180.48
-206.75
-227.97
-226.40
-222.97
-215.04
-203.82
-190.48
-175.56
-158.85
-140.33
-119.55
-95.98
-72.23
-45.86
-18.87
6.01
26.16
39.48
44.04
39.79
28.40
10.21
-9.78
-30.45
-51.17
-70.93
-88.56
-103.70
-115.23
-121.40
-121.94
-114.30
-100.17
-82.73
-65.62
-43.29
-14.75
17.46
49.10
71.73
88.90
103.54
116.75
129.58
140.10
144.36
139.47
124.77
101.94
75.69
50.21
28.98
13.98
4.10
-3.93
-12.53
-22.13
-31.23
-37.58
-40.30
-39.93
-33.47
-20.97
-5.42
9.33
20.69
28.32
31.91
33.59
35.53
39.99
48.07
60.22
76.57
95.75
114.73
126.61
123.51
101.63
64.85
22.34
-15.65
-41.85
-56.06
-59.93
-55.95
-46.44
-33.48
-19.02
-5.67
4.94
10.90
11.87
9.56
6.32
4.18
3.80
4.22
3.14
-1.62
-11.15
-24.78
-40.38
-55.75
-69.11
-79.34
-85.98
-89.15
-89.46
-87.90
-85.40
-82.55
-79.59
-76.18
-71.42
-64.33
-54.32
-41.58
-27.14
-12.38
1.39
13.26
22.83
30.25
35.91
39.95
42.07
41.64
38.12
31.59
22.88
13.48
5.09
-0.96
-3.95
-3.85
-1.07
3.99
11.01
19.80
30.15
41.75
54.27
67.45
81.01
94.58
107.40
118.31
125.89
128.96
127.02
120.51
110.72
99.29
87.62
76.49
66.00
55.80
45.52
35.02
24.51
14.36
4.96
-3.45
-10.70
-16.71
-21.36
-24.56
-26.21
-26.32
-24.96
-22.33
-18.75
-14.57
-10.03
-5.18
0.13
5.97
12.09
17.68
21.50
22.43
20.06
15.01
8.67
2.59
-2.28
-5.75
-8.09
-9.38
-9.23
-6.93
-2.15
4.53
11.51
16.71
18.41
15.93
9.77
1.20
-8.37
-17.80
-26.35
-33.47
-38.74
-41.80
-42.59
-41.43
-38.93
-35.82
-32.62
-29.52
-26.49
-23.42
-20.22
-16.80
-13.00
-8.61
-3.53
1.96
7.16
11.11
13.10
13.16
12.11
11.26
11.77
14.06
17.61
21.15
23.27
22.97
20.03
15.00
8.92
2.77
-2.79
-7.48
-11.01
-12.81
-11.87
-7.08
2.08
15.05
30.03
44.46
55.86
62.63
64.28
61.26
54.45
44.80
33.31
21.09
9.54
0.17
-5.84
-8.03
-6.85
-3.52
0.37
3.41
4.73
4.17
2.21
-0.39
-2.86
-4.76
-6.01
-6.93
-7.94
-9.38
-11.36
-13.75
-16.36
-19.04
-21.77
-24.67
-27.85
-31.42
-35.38
-39.69
-44.30
-49.10
-53.91
-58.43
-62.28
-65.13
-66.83
-67.53
-67.71
-67.98
-68.84
-70.52
-72.81
-75.20
-77.01
-77.65
-76.74
-74.23
-70.26
-65.15
-59.25
-52.96
-46.75
-41.11
-36.51
-33.20
-31.15
-30.01
-29.21
-28.13
-26.33
-23.54
-19.67
-14.75
-8.88
-2.27
4.69
11.39
17.16
21.47
24.06
25.08
24.90
23.94
22.57
21.10
19.90
19.41
20.04
21.87
24.50
27.08
28.59
28.30
26.06
22.32
17.85
13.33
9.04
4.81
0.19
-5.30
-11.88
-19.40
-27.37
-35.01
-41.40
-45.64
-46.93
-44.79
-39.12
-30.21
-18.81
-5.93
7.21
19.39
29.61
37.26
42.17
44.59
45.08
44.30
42.88
41.36
40.11
39.40
39.44
40.35
42.10
44.49
47.20
49.97
52.74
55.64
58.77
61.89
64.29
65.02
63.45
59.78
55.12
51.01
48.44
47.21
45.88
42.48
35.62
25.23
12.63
-0.22
-11.60
-20.75
-27.85
-33.66
-38.87
-43.75
-48.13
-51.66
-54.06
-55.28
-55.42
-54.52
-52.56
-49.36
-44.74
-38.73
-31.65
-24.15
-17.06
-11.20
-7.14
-5.04
-4.62
-5.26
-6.24
-6.95
-7.08
-6.70
-6.14
-5.74
-5.67
-5.79
-5.84
-5.55
-4.95
-4.32
-4.09
-4.58
-5.79
-7.41
-8.93
-9.98
-10.42
-10.44
-10.37
-10.47
-10.81
-11.21
-11.31
-10.79
-9.49
-7.52
-5.14
-2.75
-0.74
0.53
0.80
0.07
-1.35
-2.83
-3.58
-2.80
0.03
5.02
11.75
19.47
27.25
34.20
39.57
42.81
43.76
42.65
40.01
36.53
32.81
29.43
26.78
25.05
24.24
24.40
25.65
27.91
30.66
32.77
33.21
31.23
26.65
20.02
12.86
7.09
4.21
4.46
6.66
9.17
10.45
9.39
5.60
-0.27
-6.66
-11.67
-13.61
-11.33
-3.71
9.71
28.08
47.43
61.98
67.84
65.52
60.48
55.46
51.18
46.74
40.35
30.15
16.22
0.60
-13.54
-23.56
-28.70
-29.61
-27.97
-25.64
-23.67
-21.73
-18.70
-13.86
-7.82
-2.61
-0.24
-1.86
-7.35
-15.47
-24.24
-31.90
-37.55
-41.34
-44.10
-46.36
-48.08
-48.81
-48.09
-45.76
-42.14
-37.99
-34.21
-31.51
-30.04
-29.49
-29.40
-29.40
-29.29
-28.98
-28.41
-27.49
-26.22
-24.76
-23.49
-22.97
-23.74
-26.06
-29.80
-34.48
-39.44
-44.06
-47.94
-50.84
-52.65
-53.26
-52.45
-50.02
-45.90
-40.34
-33.95
-27.52
-21.77
-17.11
-13.46
-10.43
-7.53
-4.49
-1.37
1.47
3.64
4.93
5.40
5.40
5.42
5.97
7.38
9.69
12.67
15.82
18.53
20.24
20.64
19.75
17.90
15.69
13.73
12.54
12.38
13.13
14.32
15.16
14.75
12.35
7.68
1.13
-6.24
-13.00
-17.71
-19.38
-17.75
-13.26
-6.83
0.45
7.70
14.33
20.09
24.94
28.92
32.11
34.61
36.55
38.10
39.44
40.68
41.78
42.58
42.89
42.56
41.69
40.56
39.61
39.21
39.51
40.33
41.25
41.76
41.51
40.40
38.69
36.81
35.25
34.32
34.10
34.39
34.82
34.99
34.61
33.54
31.88
29.87
27.80
25.95
24.44
23.10
21.52
19.13
15.47
10.44
4.41
-1.72
-6.80
-9.79
-10.12
-7.80
-3.44
2.03
7.68
12.83
17.23
20.91
24.07
26.81
29.02
30.44
30.71
29.55
26.76
22.27
16.07
8.23
-0.98
-10.93
-20.65
-28.92
-34.58
-36.95
-36.00
-32.42
-27.35
-22.01
-17.45
-14.33
-12.93
-13.23
-14.93
-17.67
-21.00
-24.58
-28.09
-31.26
-33.76
-35.12
-34.85
-32.65
-28.60
-23.25
-17.48
-12.14
-7.73
-4.23
-1.29
1.38
3.72
5.20
5.05
2.64
-2.22
-9.19
-17.62
-26.79
-36.18
-45.48
-54.47
-62.81
-69.98
-75.33
-78.35
-78.89
-77.31
-74.30
-70.68
-67.12
-63.94
-61.20
-58.75
-56.51
-54.44
-52.58
-50.91
-49.30
-47.46
-45.15
-42.31
-39.20
-36.33
-34.29
-33.48
-33.83
-34.69
-35.01
-33.62
-29.60
-22.63
-13.02
-1.61
10.57
22.52
33.61
43.50
52.08
59.31
65.09
69.22
71.51
71.85
70.40
67.54
63.90
60.18
57.01
54.82
53.76
53.72
54.38
55.29
56.00
56.12
55.37
53.62
50.85
47.14
42.59
37.29
31.39
25.12
18.79
12.80
7.48
2.91
-1.14
-5.15
-9.74
-15.43
-22.41
-30.55
-39.30
-47.87
-55.27
-60.53
-62.82
-61.65
-56.97
-49.22
-39.23
-28.06
-16.76
-6.18
3.13
10.88
17.04
21.75
25.26
27.88
29.94
31.69
33.25
34.59
35.58
36.01
35.74
34.65
32.74
30.11
26.94
23.44
19.86
16.36
13.02
9.80
6.54
3.08
-0.62
-4.45
-8.17
-11.51
-14.26
-16.37
-18.00
-19.40
-20.86
-22.61
-24.80
-27.43
-30.42
-33.49
-36.18
-37.89
-37.89
-35.60
-30.75
-23.55
-14.69
-5.17
3.98
11.97
18.40
23.29
26.88
29.47
31.24
32.30
32.71
32.55
31.97
31.11
29.98
28.46
26.29
23.28
19.38
14.75
9.79
4.91
0.39
-3.82
-8.12
-13.16
-19.58
-27.64
-36.99
-46.63
-55.22
-61.57
-65.13
-66.19
-65.77
-65.11
-65.21
-66.48
-68.60
-70.75
-71.79
-70.58
-66.21
-58.26
-46.87
-32.80
-17.19
-1.23
14.12
28.38
41.49
53.56
64.59
74.38
82.49
88.45
91.95
93.00
91.94
89.33
85.81
81.87
77.81
73.68
69.43
64.97
60.25
55.29
50.13
44.69
38.79
32.16
24.62
16.19
7.20
-1.84
-10.36
-17.96
-24.50
-30.11
-35.01
-39.42
-43.30
-46.40
-48.28
-48.46
-46.67
-42.94
-37.77
-31.95
-26.42
-21.87
-18.63
-16.56
-15.27
-14.31
-13.38
-12.34
-11.06
-9.34
-6.83
-3.26
1.36
6.63
11.85
16.28
19.47
21.46
22.67
23.68
24.89
26.38
27.95
29.31
30.30
30.97
31.51
32.06
32.62
32.94
32.69
31.47
28.98
25.06
19.66
12.80
4.67
-4.38
-13.77
-22.69
-30.20
-35.38
-37.57
-36.52
-32.48
-26.20
-18.64
-10.80
-3.44
3.04
8.59
13.31
17.33
20.69
23.37
25.28
26.46
27.04
27.22
27.24
27.23
27.23
27.23
27.24
27.37
27.83
28.83
30.40
32.34
34.17
35.28
35.13
33.51
30.53
26.61
22.21
17.73
13.28
8.82
4.19
-0.70
-5.87
-11.24
-16.68
-22.00
-26.91
-30.99
-33.68
-34.43
-32.82
-28.79
-22.70
-15.28
-7.46
-0.12
6.07
10.82
14.14
16.24
17.39
17.86
17.83
17.52
17.10
16.74
16.57
16.64
16.85
17.04
17.03
16.68
16.01
15.12
14.13
13.14
12.12
10.97
9.56
7.81
5.75
3.44
1.01
-1.43
-3.82
-6.11
-8.27
-10.32
-12.31
-14.35
-16.63
-19.32
-22.54
-26.21
-30.05
-33.57
-36.14
-37.17
-36.23
-33.23
-28.46
-22.52
-16.13
-9.96
-4.50
0.03
3.58
6.17
7.88
8.80
9.13
9.12
9.04
9.08
9.30
9.60
9.81
9.79
9.50
9.00
8.37
7.66
6.88
5.98
4.91
3.67
2.28
0.83
-0.64
-2.16
-3.77
-5.56
-7.54
-9.67
-11.81
-13.82
-15.62
-17.26
-18.91
-20.81
-23.16
-26.00
-29.15
-32.21
-34.58
-35.65
-34.88
-32.01
-27.14
-20.73
-13.48
-6.16
0.61
6.44
11.18
14.87
17.66
19.70
21.13
22.09
22.70
23.04
23.19
23.27
23.37
23.61
24.04
24.64
25.27
25.76
25.91
25.62
24.92
23.96
22.93
22.02
21.32
20.79
20.33
19.81
19.15
18.30
17.28
16.04
14.52
12.57
10.09
7.04
3.53
-0.24
-4.08
-7.92
-11.83
-15.94
-20.27
-24.56
-28.25
-30.68
-31.31
-29.98
-26.96
-22.85
-18.33
-13.96
-10.05
-6.70
-3.95
-1.84
-0.42
0.29
0.37
0.04
-0.43
-0.79
-0.85
-0.54
0.08
0.90
1.75
2.45
2.89
3.03
2.88
2.52
2.01
1.37
0.55
-0.50
-1.83
-3.43
-5.19
-7.02
-8.80
-10.49
-12.13
-13.80
-15.60
-17.61
-19.88
-22.42
-25.21
-28.19
-31.19
-33.88
-35.76
-36.30
-35.04
-31.83
-26.92
-20.88
-14.49
-8.44
-3.18
1.18
4.78
7.84
10.45
12.54
13.91
14.43
14.10
13.16
11.98
10.94
10.29
10.08
10.18
10.37
10.43
10.23
9.70
8.86
7.75
6.44
4.96
3.35
1.67
-0.10
-1.95
-3.90
-6.00
-8.29
-10.79
-13.49
-16.30
-19.10
-21.79
-24.32
-26.77
-29.31
-32.16
-35.43
-39.04
-42.63
-45.62
-47.36
-47.29
-45.17
-41.10
-35.48
-28.92
-22.01
-15.15
-8.55
-2.19
4.03
10.15
16.08
21.68
26.78
31.32
35.33
38.89
42.07
44.86
47.17
48.91
50.00
50.40
50.09
48.98
46.98
43.95
39.81
34.54
28.26
21.17
13.58
5.80
-1.90
-9.36
-16.46
-23.10
-29.07
-34.08
-37.82
-40.13
-41.14
-41.27
-41.02
-40.78
-40.74
-40.90
-41.22
-41.68
-42.29
-42.90
-43.15
-42.46
-40.27
-36.28
-30.61
-23.82
-16.62
-9.70
-3.49
1.82
6.21
9.77
12.58
14.72
16.22
17.10
17.40
17.20
16.68
16.08
15.65
15.53
15.72
16.06
16.34
16.39
16.15
15.72
15.27
14.95
14.79
14.62
14.22
13.32
11.79
9.68
7.15
4.45
1.79
-0.70
-2.99
-5.11
-7.11
-9.05
-10.98
-12.95
-14.96
-16.93
-18.62
-19.65
-19.58
-18.09
-15.09
-10.82
-5.77
-0.53
4.36
8.57
11.93
14.40
15.97
16.63
16.45
15.61
14.39
13.14
12.15
11.54
11.27
11.16
10.98
10.59
9.92
9.05
8.11
7.25
6.57
6.05
5.56
4.87
3.80
2.27
0.36
-1.73
-3.73
-5.43
-6.77
-7.89
-9.05
-10.57
-12.66
-15.30
-18.25
-21.01
-22.95
-23.52
-22.41
-19.61
-15.41
-10.27
-4.70
0.89
6.17
10.97
15.18
18.74
21.60
23.68
24.82
24.89
23.78
21.58
18.58
15.23
12.09
9.56
7.84
6.86
6.41
6.23
6.09
5.87
5.50
4.94
4.08
2.77
0.82
-1.91
-5.38
-9.32
-13.21
-16.43
-18.52
-19.31
-19.09
-18.44
-18.07
-18.54
-20.11
-22.66
-25.72
-28.60
-30.55
-30.88
-29.19
-25.39
-19.75
-12.80
-5.17
2.59
10.08
17.08
23.46
29.14
34.04
38.01
40.86
42.32
42.17
40.30
36.79
32.02
26.61
21.34
16.90
13.83
12.34
12.37
13.59
15.50
17.52
19.08
19.69
19.08
17.28
14.57
11.46
8.48
6.04
4.28
3.00
1.75
-0.05
-2.81
-6.70
-11.49
-16.54
-20.98
-23.93
-24.75
-23.24
-19.69
-14.81
-9.47
-4.49
-0.39
2.59
4.49
5.47
5.69
5.27
4.32
2.93
1.23
-0.62
-2.45
-4.13
-5.61
-6.90
-8.10
-9.35
-10.79
-12.48
-14.41
-16.48
-18.55
-20.51
-22.26
-23.75
-24.97
-25.93
-26.65
-27.23
-27.86
-28.79
-30.29
-32.53
-35.45
-38.71
-41.66
-43.53
-43.60
-41.49
-37.28
-31.47
-24.80
-17.97
-11.43
-5.23
0.88
7.28
14.30
22.07
30.42
38.85
46.64
52.88
56.78
57.80
55.94
51.66
45.85
39.49
33.46
28.34
24.45
21.86
20.44
19.92
19.83
19.65
18.93
17.41
15.13
12.37
9.44
6.51
3.54
0.29
-3.56
-8.27
-13.90
-20.28
-26.95
-33.24
-38.31
-41.40
-41.99
-40.01
-35.83
-30.22
-24.01
-17.92
-12.32
-7.34
-2.99
0.64
3.35
4.92
5.35
4.99
4.55
4.82
6.30
8.93
12.10
14.87
16.34
16.08
14.19
11.19
7.74
4.37
1.33
-1.34
-3.69
-5.78
-7.66
-9.39
-11.04
-12.74
-14.60
-16.68
-18.96
-21.38
-23.88
-26.40
-28.87
-31.14
-32.92
-33.88
-33.71
-32.30
-29.74
-26.27
-22.19
-17.72
-12.96
-7.86
-2.32
3.85
10.81
18.55
26.81
35.03
42.48
48.50
52.81
55.58
57.32
58.56
59.60
60.40
60.73
60.49
59.80
59.07
58.68
58.71
58.83
58.38
56.59
52.93
47.20
39.59
30.54
20.61
10.33
0.14
-9.60
-18.54
-26.32
-32.53
-36.77
-38.79
-38.60
-36.55
-33.29
-29.69
-26.53
-24.34
-23.22
-22.84
-22.65
-22.15
-21.09
-19.57
-17.88
-16.26
-14.74
-13.11
-11.09
-8.51
-5.51
-2.47
0.14
1.95
2.80
2.71
1.78
0.16
-1.96
-4.32
-6.68
-8.81
-10.61
-12.09
-13.31
-14.33
-15.11
-15.66
-16.09
-16.70
-17.90
-20.02
-23.20
-27.26
-31.72
-35.94
-39.27
-41.19
-41.40
-39.85
-36.72
-32.36
-27.27
-21.92
-16.74
-12.07
-8.11
-5.01
-2.76
-1.20
0.04
1.50
3.81
7.48
12.79
19.73
28.03
37.44
47.77
58.94
70.90
83.42
96.06
108.08
118.63
126.76
131.56
132.29
128.47
120.14
107.96
93.28
77.84
63.33
50.80
40.42
31.42
22.60
12.85
1.60
-11.13
-24.87
-39.07
-53.32
-67.28
-80.45
-92.00
-100.76
-105.59
-105.81
-101.56
-93.85
-84.25
-74.37
-65.46
-58.19
-52.69
-48.70
-45.84
-43.80
-42.35
-41.34
-40.58
-39.75
-38.41
-36.04
-32.21
-26.79
-20.01
-12.45
-4.92
1.78
7.02
10.48
12.15
12.30
11.32
9.70
7.84
6.07
4.54
3.29
2.28
1.48
0.80
0.16
-0.60
-1.69
-3.32
-5.64
-8.62
-12.00
-15.32
-18.08
-19.79
-20.16
-19.15
-16.92
-13.80
-10.12
-6.22
-2.35
1.28
4.48
7.09
8.98
10.16
10.79
11.23
11.87
13.01
14.73
16.85
18.93
20.50
21.11
20.56
18.90
16.40
13.49
10.61
8.11
6.15
4.70
3.58
2.54
1.38
0.02
-1.54
-3.22
-4.96
-6.82
-8.91
-11.38
-14.34
-17.75
-21.34
-24.70
-27.28
-28.61
-28.38
-26.54
-23.35
-19.21
-14.59
-9.91
-5.41
-1.20
2.65
6.08
8.98
11.24
12.80
13.73
14.20
14.49
14.91
15.71
16.99
18.67
20.48
22.01
22.88
22.83
21.86
20.22
18.32
16.55
15.18
14.24
13.63
13.08
12.37
11.31
9.79
7.76
5.21
2.20
-1.18
-4.78
-8.47
-12.14
-15.77
-19.33
-22.78
-25.93
-28.44
-29.89
-29.89
-28.19
-24.85
-20.19
-14.75
-9.20
-4.11
0.08
3.18
5.27
6.62
7.61
8.63
9.94
11.68
13.79
16.07
18.23
19.95
20.96
21.08
20.24
18.55
16.23
13.61
11.04
8.79
7.01
5.67
4.61
3.62
2.48
1.03
-0.78
-2.93
-5.33
-7.82
-10.26
-12.50
-14.48
-16.22
-17.81
-19.40
-21.09
-22.81
-24.34
-25.29
-25.26
-23.99
-21.50
-18.06
-14.05
-9.83
-5.61
-1.47
2.51
6.19
9.34
11.71
13.18
13.77
13.64
12.97
11.91
10.57
9.07
7.55
6.22
5.30
4.91
5.04
5.54
6.21
6.82
7.22
7.34
7.18
6.80
6.23
5.51
4.61
3.48
2.12
0.48
-1.47
-3.79
-6.52
-9.65
-13.00
-16.23
-18.86
-20.42
-20.57
-19.20
-16.43
-12.61
-8.14
-3.47
1.01
5.00
8.27
10.68
12.17
12.82
12.79
12.30
11.61
10.91
10.38
10.09
10.03
10.14
10.33
10.49
10.53
10.42
10.14
9.72
9.14
8.37
7.31
5.90
4.14
2.11
0.01
-2.01
-3.84
-5.54
-7.28
-9.27
-11.66
-14.45
-17.43
-20.21
-22.30
-23.21
-22.58
-20.30
-16.54
-11.72
-6.42
-1.20
3.50
7.44
10.56
12.90
14.55
15.59
16.11
16.20
16.01
15.71
15.45
15.34
15.37
15.45
15.46
15.30
14.98
14.53
14.00
13.41
12.68
11.71
10.35
8.55
6.33
3.86
1.41
-0.78
-2.54
-3.89
-5.02
-6.21
-7.72
-9.75
-12.30
-15.23
-18.21
-20.84
-22.61
-23.06
-21.85
-18.91
-14.51
-9.21
-3.71
1.38
5.66
9.03
11.55
13.35
14.54
15.16
15.25
14.93
14.35
13.75
13.29
13.03
12.95
12.94
12.91
12.81
12.61
12.30
11.87
11.26
10.44
9.44
8.28
7.04
5.76
4.44
3.05
1.55
-0.10
-1.86
-3.67
-5.43
-7.11
-8.70
-10.30
-12.03
-14.01
-16.24
-18.53
-20.54
-21.80
-21.86
-20.43
-17.49
-13.33
-8.46
-3.47
1.12
4.98
7.98
10.18
11.68
12.55
12.85
12.64
12.04
11.27
10.57
10.16
10.07
10.21
10.36
10.34
10.07
9.64
9.20
8.89
8.72
8.56
8.20
7.48
6.33
4.80
3.04
1.21
-0.61
-2.37
-4.04
-5.58
-6.97
-8.26
-9.56
-11.08
-12.94
-15.14
-17.45
-19.51
-20.85
-21.12
-20.11
-17.83
-14.44
-10.24
-5.61
-1.00
3.17
6.58
9.07
10.62
11.39
11.55
11.30
10.79
10.17
9.59
9.19
9.07
9.28
9.72
10.17
10.38
10.15
9.49
8.52
7.53
6.75
6.28
6.05
5.79
5.23
4.19
2.64
0.69
-1.44
-3.57
-5.53
-7.22
-8.62
-9.75
-10.77
-11.86
-13.23
-14.95
-16.91
-18.76
-20.05
-20.34
-19.36
-17.13
-13.89
-10.03
-5.94
-1.95
1.72
4.91
7.52
9.48
10.77
11.42
11.53
11.27
10.85
10.46
10.25
10.28
10.52
10.89
11.28
11.59
11.77
11.82
11.72
11.50
11.16
10.69
10.10
9.37
8.46
7.36
6.04
4.53
2.83
0.97
-1.05
-3.17
-5.34
-7.45
-9.42
-11.26
-13.05
-14.91
-16.91
-18.91
-20.59
-21.53
-21.41
-20.15
-18.00
-15.38
-12.78
-10.52
-8.72
-7.34
-6.28
-5.46
-4.90
-4.62
-4.61
-4.74
-4.78
-4.46
-3.55
-2.01
0.03
2.30
4.50
6.43
8.00
9.21
10.02
10.35
10.08
9.18
7.75
6.06
4.49
3.31
2.64
2.36
2.20
1.85
1.01
-0.50
-2.75
-5.64
-8.90
-12.15
-14.93
-16.85
-17.67
-17.34
-15.99
-13.80
-11.00
-7.84
-4.60
-1.59
0.91
2.76
3.98
4.74
5.23
5.58
5.82
5.94
6.00
6.15
6.62
7.58
8.97
10.56
11.95
12.77
12.85
12.22
11.07
9.63
8.06
6.39
4.58
2.54
0.28
-2.18
-4.74
-7.33
-9.86
-12.31
-14.62
-16.69
-18.32
-19.27
-19.25
-18.03
-15.52
-11.78
-7.02
-1.58
4.13
9.64
14.49
18.28
20.72
21.71
21.33
19.77
17.37
14.49
11.49
8.70
6.33
4.49
3.10
1.97
0.87
-0.41
-1.99
-3.86
-5.94
-8.10
-10.27
-12.40
-14.46
-16.43
-18.25
-19.83
-21.11
-22.06
-22.71
-23.14
-23.40
-23.44
-23.09
-22.04
-19.95
-16.60
-11.93
-6.10
0.56
7.64
14.69
21.26
26.94
31.29
33.94
34.60
33.23
30.00
25.40
20.05
14.63
9.71
5.66
2.63
0.55
-0.81
-1.73
-2.49
-3.24
-4.01
-4.63
-4.93
-4.75
-4.14
-3.35
-2.80
-2.92
-4.03
-6.16
-9.11
-12.40
-15.47
-17.74
-18.76
-18.27
-16.28
-13.05
-9.02
-4.76
-0.82
2.41
4.73
6.22
7.07
7.49
7.65
7.62
7.44
7.19
6.99
7.03
7.41
8.09
8.91
9.63
10.02
9.96
9.48
8.70
7.76
6.83
5.97
5.21
4.45
3.55
2.27
0.37
-2.38
-6.15
-10.88
-16.25
-21.63
-26.16
-28.96
-29.41
-27.31
-22.99
-17.16
-10.67
-4.30
1.45
6.32
10.27
13.38
15.80
17.67
19.11
20.19
20.88
21.09
20.69
19.66
18.09
16.24
14.40
12.81
11.54
10.46
9.34
7.91
6.01
3.60
0.80
-2.24
-5.39
-8.61
-11.95
-15.46
-19.08
-22.50
-25.23
-26.68
-26.40
-24.28
-20.55
-15.75
-10.51
-5.35
-0.57
3.74
7.66
11.29
14.70
17.88
20.73
23.04
24.58
25.07
24.35
22.39
19.34
15.49
11.24
7.02
3.25
0.26
-1.71
-2.65
-2.73
-2.30
-1.71
-1.22
-0.92
-0.70
-0.38
0.20
0.99
1.81
2.38
2.46
1.89
0.71
-0.94
-2.80
-4.57
-5.92
-6.57
-6.32
-5.13
-3.15
-0.66
1.96
4.34
6.26
7.56
8.20
8.09
7.16
5.35
2.76
-0.30
-3.34
-5.82
-7.29
-7.60
-6.93
-5.66
-4.23
-2.96
-1.99
-1.28
-0.74
-0.29
0.10
0.38
0.50
0.40
0.03
-0.69
-1.88
-3.62
-5.93
-8.67
-11.52
-14.02
-15.72
-16.23
-15.37
-13.21
-10.02
-6.22
-2.20
1.72
5.39
8.75
11.83
14.58
16.90
18.61
19.48
19.36
18.22
16.21
13.65
10.94
8.42
6.36
4.84
3.81
3.10
2.49
1.76
0.73
-0.71
-2.58
-4.76
-7.05
-9.16
-10.82
-11.89
-12.40
-12.59
-12.76
-13.20
-13.96
-14.87
-15.50
-15.36
-14.08
-11.56
-8.02
-3.92
0.15
3.70
6.45
8.32
9.42
9.93
9.96
9.60
8.86
7.79
6.54
5.31
4.32
3.66
3.32
3.13
2.90
2.55
2.19
2.06
2.40
3.31
4.65
6.12
7.36
8.12
8.35
8.09
7.37
6.06
3.91
0.70
-3.61
-8.71
-13.93
-18.42
-21.39
-22.30
-21.03
-17.86
-13.42
-8.44
-3.68
0.31
3.26
5.10
5.96
6.00
5.38
4.26
2.87
1.49
0.50
0.18
0.62
1.71
3.10
4.40
5.25
5.47
5.10
4.33
3.48
2.89
2.81
3.33
4.30
5.36
6.02
5.80
4.37
1.70
-1.98
-6.21
-10.41
-14.01
-16.57
-17.85
-17.84
-16.77
-15.00
-12.92
-10.83
-8.87
-7.03
-5.24
-3.41
-1.57
0.19
1.72
2.93
3.82
4.51
5.15
5.91
6.88
8.06
9.31
10.40
11.06
11.00
10.01
8.01
5.10
1.60
-2.09
-5.52
-8.39
-10.60
-12.39
-14.17
-16.38
-19.23
-22.59
-25.94
-28.51
-29.56
-28.65
-25.73
-21.20
-15.75
-10.11
-4.84
-0.24
3.63
6.86
9.57
11.83
13.69
15.18
16.36
17.24
17.80
17.96
17.63
16.79
15.54
14.09
12.64
11.26
9.85
8.18
5.98
3.10
-0.42
-4.39
-8.46
-12.31
-15.65
-18.38
-20.52
-22.20
-23.56
-24.62
-25.18
-24.92
-23.51
-20.74
-16.73
-11.83
-6.58
-1.55
2.83
6.24
8.53
9.69
9.86
9.24
8.11
6.75
5.33
3.91
2.44
0.78
-1.21
-3.58
-6.27
-9.09
-11.71
-13.75
-14.88
-14.96
-14.08
-12.52
-10.68
-8.91
-7.37
-6.07
-4.92
-3.79
-2.58
-1.21
0.42
2.42
4.90
7.90
11.37
15.11
18.95
22.73
26.43
30.12
33.90
37.79
41.63
45.15
47.99
49.82
50.47
49.90
48.25
45.73
42.64
39.29
36.00
32.97
30.33
28.00
25.82
23.58
21.18
18.64
16.14
13.93
12.17
10.89
9.94
9.01
7.83
6.23
4.29
2.23
0.39
-0.93
-1.59
-1.64
-1.29
-0.76
-0.26
-0.00
-0.17
-0.94
-2.47
-4.75
-7.62
-10.76
-13.77
-16.31
-18.23
-19.56
-20.45
-21.04
-21.40
-21.52
-21.31
-20.79
-20.04
-19.30
-18.81
-18.77
-19.17
-19.84
-20.47
-20.75
-20.48
-19.62
-18.28
-16.68
-15.09
-13.69
-12.57
-11.67
-10.78
-9.69
-8.20
-6.24
-3.89
-1.27
1.49
4.33
7.24
10.17
13.02
15.59
17.64
18.96
19.47
19.21
18.34
17.09
15.73
14.44
13.39
12.66
12.27
12.17
12.21
12.08
11.34
9.45
5.93
0.53
-6.69
-15.39
-25.13
-35.51
-46.26
-57.05
-67.33
-76.22
-82.60
-85.53
-84.66
-80.40
-73.88
-66.45
-59.17
-52.46
-46.13
-39.68
-32.69
-25.14
-17.39
-10.01
-3.48
1.98
6.45
10.15
13.19
15.52
16.89
17.05
15.88
13.58
10.57
7.37
4.39
1.74
-0.66
-3.06
-5.66
-8.55
-11.66
-14.83
-17.91
-20.68
-22.87
-24.13
-24.09
-22.47
-19.25
-14.72
-9.37
-3.75
1.71
6.78
11.42
15.64
19.37
22.44
24.54
25.41
24.86
22.92
19.84
15.98
11.72
7.34
2.99
-1.29
-5.42
-9.23
-12.44
-14.71
-15.85
-15.92
-15.29
-14.51
-14.18
-14.75
-16.32
-18.66
-21.17
-23.00
-23.18
-20.95
-15.96
-8.43
0.85
10.79
20.34
28.76
35.79
41.51
46.11
49.65
51.99
52.85
52.03
49.57
45.80
41.31
36.67
32.30
28.31
24.61
21.03
17.50
14.08
11.00
8.44
6.48
4.98
3.62
2.02
-0.18
-3.20
-7.08
-11.67
-16.56
-21.15
-24.71
-26.57
-26.31
-23.90
-19.69
-14.35
-8.59
-3.01
2.01
6.31
9.89
12.82
15.19
17.12
18.79
20.39
22.14
24.14
26.40
28.79
31.08
33.02
34.38
35.08
35.25
35.27
35.68
36.96
39.37
42.75
46.64
50.41
53.53
55.72
56.83
56.74
55.31
52.41
48.04
42.47
36.19
29.75
23.59
18.00
13.15
9.17
6.21
4.39
3.71
4.04
5.08
6.48
7.84
8.66
8.41
6.54
2.75
-2.91
-9.96
-17.65
-25.22
-32.13
-38.08
-43.04
-47.09
-50.33
-52.87
-54.84
-56.40
-57.73
-58.93
-60.07
-61.18
-62.27
-63.37
-64.45
-65.34
-65.69
-64.98
-62.70
-58.48
-52.26
-44.31
-35.13
-25.36
-15.60
-6.37
1.94
9.09
14.90
19.27
22.14
23.57
23.71
22.88
21.44
19.76
18.06
16.38
14.57
12.45
9.91
7.08
4.26
1.83
0.05
-1.07
-1.74
-2.35
-3.21
-4.49
-6.14
-8.01
-9.97
-11.91
-13.68
-14.98
-15.38
-14.42
-11.81
-7.66
-2.44
3.18
8.58
13.37
17.44
20.77
23.32
24.90
25.23
24.18
21.86
18.71
15.36
12.43
10.26
8.86
7.91
7.02
5.92
4.66
3.49
2.72
2.47
2.53
2.48
1.83
0.24
-2.39
-5.89
-9.98
-14.24
-18.18
-21.28
-23.06
-23.22
-21.71
-18.79
-14.96
-10.74
-6.50
-2.40
1.57
5.44
9.14
12.46
15.07
16.73
17.34
16.97
15.85
14.24
12.38
10.42
8.47
6.62
4.99
3.73
2.89
2.46
2.24
1.96
1.26
-0.13
-2.31
-5.21
-8.53
-11.85
-14.70
-16.64
-17.38
-16.78
-14.93
-12.08
-8.59
-4.86
-1.19
2.21
5.23
7.81
9.89
11.35
12.09
12.11
11.52
10.60
9.67
9.03
8.75
8.71
8.64
8.24
7.36
6.07
4.61
3.28
2.28
1.63
1.20
0.69
-0.21
-1.77
-4.12
-7.22
-10.84
-14.53
-17.72
-19.81
-20.37
-19.21
-16.49
-12.61
-8.10
-3.53
0.71
4.33
7.21
9.26
10.43
10.72
10.27
9.39
8.54
8.16
8.49
9.51
10.88
12.19
13.10
13.46
13.33
12.81
11.95
10.68
8.85
6.35
3.22
-0.37
-4.15
-7.78
-10.87
-13.04
-13.92
-13.20
-10.70
-6.47
-0.76
5.96
13.12
20.20
26.76
32.54
37.45
41.45
44.58
46.80
48.09
48.41
47.78
46.28
44.06
41.30
38.17
34.74
31.03
27.00
22.60
17.79
12.52
6.72
0.32
-6.75
-14.46
-22.60
-30.86
-38.81
-46.10
-52.58
-58.25
-63.20
-67.39
-70.44
-71.70
-70.47
-66.30
-59.34
-50.42
-40.78
-31.70
-23.97
-17.69
-12.30
-6.95
-0.90
6.23
14.33
22.84
30.92
37.58
41.82
42.81
40.18
34.18
25.73
16.26
7.26
-0.03
-4.96
-7.45
-7.87
-6.72
-4.45
-1.40
2.15
5.94
9.62
12.85
15.40
17.11
18.00
18.12
17.46
15.95
13.50
10.16
6.11
1.75
-2.40
-5.85
-8.27
-9.58
-9.97
-9.87
-9.81
-10.33
-11.75
-14.13
-17.20
-20.48
-23.45
-25.77
-27.31
-28.21
-28.75
-29.24
-29.89
-30.77
-31.79
-32.68
-33.05
-32.47
-30.58
-27.16
-22.29
-16.31
-9.80
-3.37
2.40
7.18
10.84
13.43
14.98
15.47
14.77
12.79
9.64
5.62
1.21
-3.04
-6.78
-9.88
-12.45
-14.65
-16.59
-18.23
-19.37
-19.78
-19.26
-17.75
-15.39
-12.50
-9.56
-7.11
-5.55
-5.01
-5.23
-5.63
-5.46
-4.10
-1.22
3.12
8.57
14.60
20.67
26.30
31.03
34.47
36.28
36.27
34.50
31.29
27.13
22.63
18.30
14.49
11.33
8.74
6.54
4.56
2.71
1.10
-0.06
-0.57
-0.34
0.44
1.32
1.76
1.25
-0.45
-3.21
-6.59
-9.91
-12.47
-13.70
-13.35
-11.49
-8.54
-5.08
-1.72
0.99
2.72
3.33
2.83
1.37
-0.82
-3.43
-6.09
-8.48
-10.28
-11.33
-11.59
-11.11
-9.98
-8.31
-6.18
-3.65
-0.87
1.93
4.41
6.27
7.29
7.42
6.73
5.41
3.62
1.51
-0.75
-2.92
-4.65
-5.58
-5.47
-4.33
-2.46
-0.33
1.65
3.22
4.30
4.97
5.29
5.29
4.93
4.23
3.34
2.58
2.36
3.02
4.69
7.20
10.08
12.74
14.63
15.45
15.27
14.37
13.17
11.93
10.70
9.26
7.24
4.31
0.35
-4.50
-9.78
-14.87
-19.12
-22.00
-23.22
-22.81
-21.03
-18.31
-15.05
-11.57
-8.09
-4.75
-1.66
1.09
3.51
5.68
7.73
9.84
12.05
14.29
16.38
18.08
19.24
19.82
19.87
19.52
18.86
17.93
16.72
15.18
13.21
10.62
7.18
2.71
-2.75
-8.84
-14.89
-20.02
-23.45
-24.73
-23.86
-21.22
-17.44
-13.15
-8.87
-4.91
-1.43
1.53
4.01
6.12
7.97
9.60
11.01
12.10
12.83
13.21
13.29
13.15
12.81
12.23
11.31
10.02
8.42
6.65
4.80
2.81
0.45
-2.59
-6.56
-11.40
-16.74
-21.87
-25.98
-28.36
-28.65
-26.90
-23.51
-19.10
-14.27
-9.50
-5.09
-1.23
1.96
4.38
6.03
7.07
7.75
8.44
9.40
10.68
12.12
13.39
14.16
14.24
13.63
12.51
11.07
9.44
7.56
5.19
2.05
-2.05
-7.12
-12.84
-18.69
-23.99
-28.05
-30.32
-30.57
-28.87
-25.61
-21.40
-16.85
-12.41
-8.31
-4.52
-0.91
2.64
6.10
9.32
12.11
14.37
16.16
17.69
19.21
20.91
22.76
24.56
25.99
26.66
26.28
24.68
21.85
17.93
13.13
7.70
1.84
-4.31
-10.59
-16.73
-22.22
-26.38
-28.48
-28.05
-25.05
-19.98
-13.62
-6.80
-0.09
6.21
11.98
17.16
21.62
25.22
27.90
29.78
31.07
31.93
32.33
32.02
30.63
27.85
23.60
18.09
11.75
5.14
-1.25
-7.06
-12.15
-16.60
-20.59
-24.31
-27.88
-31.25
-34.17
-36.17
-36.71
-35.30
-31.70
-26.08
-18.95
-11.11
-3.31
4.00
10.80
17.41
24.24
31.38
38.36
44.18
47.60
47.63
43.89
36.86
27.73
17.94
8.70
0.70
-5.99
-11.59
-16.31
-20.06
-22.57
-23.57
-23.06
-21.41
-19.17
-16.78
-14.25
-11.24
-7.27
-2.10
4.04
10.43
16.26
20.88
24.10
26.07
27.08
27.25
26.45
24.40
20.92
16.09
10.31
4.14
-1.89
-7.40
-12.21
-16.22
-19.28
-21.26
-22.10
-21.91
-20.98
-19.73
-18.51
-17.54
-16.82
-16.26
-15.74
-15.21
-14.65
-13.95
-12.91
-11.27
-8.83
-5.58
-1.79
2.10
5.58
8.25
9.94
10.69
10.65
10.04
9.00
7.55
5.66
3.28
0.46
-2.64
-5.76
-8.68
-11.26
-13.50
-15.47
-17.20
-18.64
-19.67
-20.17
-20.11
-19.59
-18.75
-17.68
-16.37
-14.72
-12.62
-10.04
-7.00
-3.57
0.22
4.32
8.72
13.25
17.73
21.85
25.27
27.66
28.75
28.35
26.41
23.07
18.66
13.68
8.68
4.23
0.73
-1.62
-2.86
-3.19
-2.96
-2.56
-2.29
-2.22
-2.18
-1.70
-0.22
2.64
6.79
11.52
15.62
17.71
16.73
12.38
5.23
-3.42
-11.99
-19.09
-23.88
-26.19
-26.38
-25.15
-23.19
-21.04
-19.00
-17.09
-15.18
-13.04
-10.48
-7.43
-4.03
-0.61
2.39
4.60
5.84
6.29
6.42
6.79
7.89
9.88
12.60
15.66
18.55
20.72
21.62
20.73
17.67
12.31
4.97
-3.52
-12.01
-19.24
-24.23
-26.50
-26.08
-23.40
-19.08
-13.69
-7.74
-1.68
4.03
8.89
12.43
14.38
14.80
14.14
13.18
12.79
13.64
15.92
19.22
22.67
25.21
25.97
24.48
20.81
15.38
8.75
1.37
-6.47
-14.59
-22.74
-30.44
-37.01
-41.70
-43.90
-43.31
-40.12
-34.87
-28.30
-21.12
-13.90
-6.96
-0.51
5.31
10.37
14.54
17.77
20.10
21.69
22.71
23.30
23.48
23.21
22.39
20.99
19.03
16.56
13.63
10.23
6.27
1.67
-3.61
-9.49
-15.77
-22.05
-27.79
-32.29
-34.81
-34.71
-31.67
-25.88
-18.01
-9.15
-0.47
7.07
12.93
17.05
19.77
21.57
22.95
24.25
25.60
26.91
27.91
28.28
27.71
26.03
23.22
19.44
14.93
9.97
4.84
-0.24
-5.14
-9.82
-14.30
-18.67
-22.93
-26.94
-30.38
-32.82
-33.82
-33.10
-30.56
-26.29
-20.57
-13.79
-6.48
0.77
7.37
12.89
17.16
20.28
22.53
24.18
25.35
25.96
25.86
24.89
23.05
20.44
17.20
13.47
9.32
4.83
0.08
-4.80
-9.66
-14.28
-18.44
-21.88
-24.37
-25.68
-25.72
-24.54
-22.31
-19.25
-15.59
-11.49
-7.03
-2.22
2.97
8.61
14.70
21.05
27.24
32.56
36.24
37.63
36.50
33.06
27.86
21.56
14.66
7.44
0.04
-7.32
-14.22
-20.10
-24.45
-27.05
-28.07
-27.95
-27.24
-26.41
-25.75
-25.34
-25.15
-25.00
-24.59
-23.47
-21.17
-17.28
-11.71
-4.78
2.81
10.17
16.45
21.14
24.10
25.52
25.77
25.15
23.82
21.78
18.98
15.40
11.15
6.45
1.58
-3.24
-7.77
-11.78
-15.01
-17.12
-17.89
-17.26
-15.55
-13.40
-11.59
-10.68
-10.77
-11.33
-11.42
-10.06
-6.69
-1.40
5.06
11.65
17.34
21.49
23.86
24.53
23.64
21.39
17.99
13.75
9.09
4.44
0.09
-3.86
-7.48
-10.80
-13.74
-16.11
-17.75
-18.65
-18.97
-18.97
-18.86
-18.61
-18.03
-16.97
-15.39
-13.40
-11.09
-8.32
-4.70
0.19
6.46
13.66
20.87
26.94
30.97
32.59
31.95
29.54
25.83
21.14
15.65
9.57
3.26
-2.78
-8.08
-12.38
-15.67
-18.13
-19.95
-21.18
-21.73
-21.51
-20.60
-19.33
-18.33
-18.22
-19.33
-21.53
-24.18
-26.36
-27.15
-25.89
-22.41
-17.09
-10.66
-4.04
1.95
6.77
10.38
13.25
16.40
21.13
28.34
38.34
50.52
63.51
75.59
85.24
91.51
94.21
93.64
89.81
82.66
71.90
57.43
39.52
18.78
-4.08
-28.09
-51.96
-74.41
-93.52
-107.47
-115.13
-116.64
-113.55
-108.13
-101.95
-92.77
-78.56
-58.30
-33.80
-9.26
11.15
25.76
34.39
38.46
40.48
40.79
40.23
39.15
37.43
34.72
30.55
24.61
17.25
9.51
2.53
-2.21
-3.72
-1.61
3.97
12.36
22.42
32.90
42.48
49.54
52.92
51.98
47.07
39.65
31.93
26.12
23.89
25.84
31.20
38.33
44.98
48.95
48.68
43.60
34.28
22.45
10.47
0.67
-5.36
-7.36
-6.51
-4.88
-4.65
-7.25
-12.85
-20.42
-28.17
-34.23
-37.18
-36.38
-31.98
-25.00
-17.12
-10.30
-6.17
-5.30
-6.77
-8.43
-7.71
-2.79
6.68
19.58
34.15
48.87
63.07
76.78
89.94
101.79
110.75
114.97
113.33
106.04
94.56
80.90
66.66
52.52
38.33
23.77
8.97
-5.28
-17.93
-28.23
-36.20
-42.56
-48.24
-53.81
-59.33
-64.44
-68.93
-72.98
-77.14
-81.87
-86.96
-91.37
-93.40
-91.35
-84.17
-71.96
-55.98
-38.36
-21.58
-7.99
0.64
3.34
0.09
-8.37
-20.66
-35.13
-50.11
-63.94
-75.12
-82.33
-84.82
-82.77
-77.43
-70.83
-64.96
-60.84
-57.99
-54.76
-49.19
-40.32
-28.73
-16.36
-5.51
2.23
6.69
8.93
10.56
12.87
16.46
21.19
26.56
32.05
37.24
41.69
44.87
46.17
45.19
41.98
37.07
31.23
25.10
18.95
12.67
6.11
-0.64
-7.19
-13.17
-18.55
-23.84
-29.83
-37.03
-45.18
-53.16
-59.38
-62.47
-61.95
-58.35
-52.99
-47.27
-42.27
-38.36
-35.38
-32.92
-30.62
-28.32
-26.06
-23.97
-22.15
-20.68
-19.55
-18.72
-18.03
-17.22
-15.98
-13.97
-10.87
-6.49
-0.77
6.07
13.49
20.66
26.67
30.93
33.47
35.07
37.06
40.79
47.13
56.03
66.57
77.29
86.71
93.74
97.87
99.12
97.92
94.79
90.14
84.15
76.75
67.86
57.53
46.19
34.57
23.50
13.54
4.87
-2.74
-9.67
-16.22
-22.50
-28.50
-34.21
-39.70
-45.03
-50.02
-54.18
-56.79
-57.15
-54.97
-50.49
-44.45
-37.83
-31.52
-26.04
-21.56
-17.93
-14.92
-12.35
-10.17
-8.48
-7.45
-7.23
-7.82
-9.00
-10.38
-11.41
-11.55
-10.30
-7.37
-2.75
3.21
9.76
15.84
20.27
22.07
20.76
16.55
10.28
3.24
-3.25
-8.10
-10.72
-10.99
-9.24
-6.03
-2.04
2.02
5.54
8.09
9.42
9.59
8.87
7.71
6.61
6.00
6.14
7.11
8.89
11.37
14.37
17.56
20.36
22.09
22.23
20.68
17.93
14.90
12.42
10.81
9.67
8.07
5.08
0.28
-6.03
-12.91
-19.31
-24.47
-28.13
-30.52
-32.02
-33.00
-33.67
-34.03
-34.03
-33.56
-32.59
-31.10
-29.13
-26.70
-23.84
-20.64
-17.19
-13.65
-10.16
-6.74
-3.27
0.47
4.75
9.70
15.22
20.95
26.35
30.75
33.43
33.76
31.28
25.86
17.85
8.19
-1.74
-10.39
-16.39
-18.93
-17.90
-13.79
-7.52
-0.13
7.44
14.49
20.59
25.51
29.06
31.01
31.15
29.42
26.21
22.36
18.99
17.04
16.84
17.85
18.85
18.46
15.81
10.84
4.31
-2.66
-9.14
-14.72
-19.60
-24.33
-29.47
-35.36
-41.93
-48.74
-55.05
-59.96
-62.58
-62.23
-58.55
-51.65
-42.12
-30.93
-19.17
-7.90
2.18
10.77
17.97
24.15
29.72
34.92
39.74
43.96
47.27
49.42
50.34
50.14
49.03
47.21
44.75
41.62
37.73
32.99
27.42
21.20
14.67
8.24
2.33
-2.80
-7.01
-10.35
-12.84
-14.46
-15.16
-14.86
-13.62
-11.57
-8.85
-5.48
-1.43
3.40
8.94
14.87
20.62
25.52
28.96
30.54
30.06
27.55
23.25
17.58
11.10
4.44
-1.95
-7.94
-13.62
-19.20
-24.76
-30.03
-34.47
-37.51
-38.77
-38.40
-36.99
-35.41
-34.47
-34.62
-35.70
-37.02
-37.52
-36.13
-32.04
-24.99
-15.36
-4.06
7.71
18.71
27.99
35.07
39.93
42.85
44.17
44.15
42.81
40.11
36.10
31.10
25.70
20.64
16.54
13.68
11.91
10.78
9.86
8.86
7.75
6.65
5.69
4.95
4.46
4.27
4.48
5.12
6.03
6.85
7.14
6.61
5.33
3.72
2.36
1.69
1.83
2.57
3.59
4.58
5.38
5.85
5.81
5.00
3.16
0.26
-3.39
-7.13
-10.19
-11.93
-12.14
-11.02
-9.08
-6.87
-4.73
-2.73
-0.72
1.51
4.07
6.94
9.90
12.69
14.97
16.42
16.72
15.63
12.96
8.74
3.21
-3.17
-9.70
-15.55
-19.86
-21.93
-21.36
-18.30
-13.34
-7.41
-1.44
3.87
8.10
11.01
12.49
12.51
11.29
9.45
7.90
7.59
8.94
11.66
14.73
16.97
17.56
16.37
13.93
10.98
8.01
5.05
1.77
-2.20
-7.06
-12.69
-18.81
-24.99
-30.73
-35.47
-38.55
-39.32
-37.32
-32.51
-25.33
-16.71
-7.76
0.45
7.15
11.97
14.94
16.39
16.83
16.85
16.93
17.33
18.06
18.90
19.56
19.79
19.49
18.75
17.67
16.31
14.57
12.20
8.91
4.52
-0.97
-7.32
-14.08
-20.66
-26.42
-30.81
-33.39
-33.93
-32.50
-29.44
-25.32
-20.79
-16.40
-12.35
-8.54
-4.63
-0.36
4.29
8.96
13.07
16.01
17.35
17.01
15.14
12.04
7.99
3.22
-2.08
-7.74
-13.55
-19.26
-24.59
-29.27
-33.08
-35.90
-37.71
-38.53
-38.45
-37.61
-36.22
-34.54
-32.85
-31.34
-30.00
-28.51
-26.34
-22.89
-17.72
-10.69
-2.08
7.58
17.65
27.62
37.12
45.95
53.89
60.69
66.05
69.78
71.93
72.79
72.73
72.00
70.55
68.08
64.16
58.55
51.37
42.98
33.83
24.21
14.22
3.97
-6.17
-15.48
-23.02
-28.10
-30.60
-31.07
-30.44
-29.52
-28.62
-27.47
-25.53
-22.45
-18.38
-13.94
-9.89
-6.73
-4.54
-3.03
-1.86
-0.83
-0.03
0.33
0.14
-0.47
-1.18
-1.62
-1.61
-1.27
-0.97
-1.14
-2.09
-3.82
-6.01
-8.10
-9.50
-9.81
-9.01
-7.52
-6.06
-5.42
-6.07
-7.97
-10.55
-12.85
-13.97
-13.39
-11.16
-7.81
-4.16
-0.94
1.47
3.06
4.17
5.22
6.46
7.94
9.45
10.69
11.34
11.21
10.28
8.75
7.01
5.57
4.87
5.08
6.05
7.30
8.26
8.52
7.97
6.80
5.25
3.45
1.20
-1.92
-6.36
-12.28
-19.36
-26.77
-33.34
-37.92
-39.64
-38.24
-34.08
-27.96
-20.81
-13.46
-6.47
-0.14
5.35
9.94
13.58
16.32
18.39
20.16
22.01
24.19
26.73
29.34
31.60
33.05
33.44
32.79
31.37
29.57
27.63
25.55
23.00
19.50
14.58
8.02
0.02
-8.77
-17.38
-24.79
-30.19
-33.18
-33.71
-32.11
-28.87
-24.43
-19.15
-13.17
-6.54
0.65
8.18
15.61
22.31
27.59
30.92
32.02
30.98
28.22
24.35
20.02
15.77
11.88
8.39
5.04
1.43
-2.89
-8.13
-14.14
-20.47
-26.46
-31.48
-35.11
-37.33
-38.42
-38.90
-39.32
-40.09
-41.28
-42.57
-43.30
-42.60
-39.78
-34.54
-27.22
-18.72
-10.18
-2.59
3.67
8.87
13.68
18.75
24.21
29.50
33.55
35.23
33.85
29.51
23.16
16.23
10.20
6.12
4.29
4.31
5.38
6.63
7.36
7.29
6.44
5.07
3.54
2.19
1.25
0.77
0.53
0.10
-0.99
-3.07
-6.05
-9.45
-12.55
-14.68
-15.54
-15.23
-14.22
-13.05
-12.21
-11.95
-12.27
-13.01
-13.92
-14.75
-15.35
-15.65
-15.65
-15.44
-15.07
-14.55
-13.81
-12.74
-11.12
-8.70
-5.18
-0.38
5.62
12.39
19.09
24.76
28.58
30.21
29.90
28.29
26.06
23.53
20.54
16.61
11.32
4.71
-2.52
-9.21
-14.08
-16.21
-15.41
-12.27
-7.88
-3.46
0.07
2.29
3.20
3.12
2.42
1.43
0.47
-0.15
-0.14
0.63
2.01
3.47
4.30
3.81
1.61
-2.21
-7.14
-12.54
-17.80
-22.60
-26.90
-30.90
-34.85
-38.97
-43.37
-47.99
-52.62
-56.90
-60.35
-62.39
-62.48
-60.19
-55.33
-48.00
-38.60
-27.73
-15.97
-3.75
8.70
21.22
33.50
44.96
54.76
62.07
66.48
68.20
68.06
67.08
65.97
64.85
63.16
60.02
54.78
47.35
38.32
28.71
19.62
11.82
5.60
0.78
-3.04
-6.29
-9.30
-12.33
-15.56
-19.11
-22.87
-26.37
-28.70
-28.81
-25.91
-19.94
-11.73
-2.78
5.25
11.14
14.49
15.65
15.34
14.25
12.68
10.52
7.48
3.35
-1.76
-7.39
-12.89
-17.65
-21.23
-23.50
-24.55
-24.61
-23.94
-22.79
-21.43
-20.06
-18.80
-17.53
-15.92
-13.49
-9.96
-5.44
-0.64
3.38
5.59
5.46
3.31
0.15
-2.62
-3.82
-2.89
-0.14
3.55
7.06
9.52
10.66
10.75
10.45
10.45
11.06
12.20
13.45
14.39
14.84
14.91
14.84
14.78
14.71
14.60
14.55
14.93
16.18
18.48
21.48
24.32
25.96
25.65
23.19
18.96
13.51
7.33
0.58
-6.77
-14.75
-23.13
-31.40
-38.78
-44.47
-47.76
-48.28
-46.06
-41.52
-35.40
-28.58
-21.92
-16.12
-11.63
-8.57
-6.65
-5.10
-2.75
1.65
8.93
19.03
30.76
42.10
50.87
55.59
56.00
53.05
48.38
43.62
39.66
36.57
33.71
30.22
25.44
19.17
11.72
3.79
-3.67
-9.66
-13.35
-14.17
-12.00
-7.19
-0.66
6.24
11.96
15.24
15.51
13.18
9.54
6.23
4.50
4.70
6.17
7.60
7.77
6.09
2.78
-1.39
-5.62
-9.44
-12.90
-16.40
-20.32
-24.85
-29.84
-34.93
-39.69
-43.80
-47.13
-49.70
-51.60
-52.97
-53.90
-54.46
-54.62
-54.17
-52.57
-48.91
-42.14
-31.54
-17.15
-0.09
17.64
33.85
46.81
55.85
61.36
64.39
66.03
66.92
67.06
66.06
63.43
58.87
52.55
45.06
37.32
30.30
24.65
20.49
17.47
15.00
12.59
10.08
7.51
4.89
1.94
-1.80
-6.68
-12.63
-19.06
-25.13
-30.15
-33.88
-36.57
-38.60
-40.20
-41.25
-41.47
-40.71
-39.10
-37.06
-35.05
-33.34
-31.94
-30.75
-29.73
-29.10
-29.28
-30.60
-33.06
-36.13
-38.83
-40.04
-38.89
-35.02
-28.68
-20.62
-11.83
-3.31
4.04
9.58
12.99
14.40
14.36
13.80
13.72
14.82
17.26
20.60
24.08
26.98
28.92
29.89
30.10
29.75
28.87
27.37
25.19
22.42
19.35
16.41
14.06
12.58
11.98
11.95
11.92
11.25
9.58
6.96
4.01
1.65
0.64
1.27
3.03
4.88
5.61
4.35
0.82
-4.56
-11.01
-17.65
-23.81
-29.22
-34.01
-38.61
-43.53
-49.10
-55.20
-61.13
-65.74
-67.69
-65.96
-60.17
-50.81
-38.98
-26.08
-13.36
-1.82
7.91
15.49
20.96
24.95
28.70
33.68
40.98
50.57
61.01
69.93
74.99
74.98
70.35
62.80
54.43
46.68
39.86
33.43
26.66
19.30
11.77
4.83
-1.01
-5.89
-10.47
-15.45
-20.93
-26.11
-29.59
-30.05
-26.92
-20.75
-12.86
-4.72
2.73
9.31
15.44
21.53
27.62
33.12
37.12
38.82
37.85
34.46
29.32
23.29
17.07
11.04
5.24
-0.49
-6.39
-12.55
-18.84
-24.93
-30.42
-34.87
-38.03
-39.75
-40.08
-39.19
-37.36
-34.95
-32.28
-29.55
-26.68
-23.35
-19.03
-13.24
-5.80
2.98
12.37
21.48
29.55
36.24
41.61
45.84
49.03
50.94
51.11
49.08
44.70
38.33
30.81
23.28
16.85
12.22
9.55
8.42
8.12
7.89
7.20
5.86
3.98
1.83
-0.26
-2.03
-3.29
-4.03
-4.44
-4.91
-5.89
-7.68
-10.23
-13.05
-15.37
-16.49
-16.03
-14.15
-11.40
-8.50
-6.11
-4.63
-4.20
-4.75
-6.13
-8.12
-10.45
-12.83
-14.94
-16.52
-17.37
-17.41
-16.57
-14.81
-12.03
-8.14
-3.07
3.06
9.92
16.96
23.55
29.07
33.11
35.49
36.29
35.75
34.15
31.67
28.43
24.47
19.92
15.10
10.64
7.34
5.98
7.01
10.37
15.40
21.06
26.27
30.07
31.75
30.81
26.97
20.30
11.41
1.41
-8.25
-16.28
-22.01
-25.60
-27.87
-29.80
-32.10
-34.85
-37.71
-40.18
-41.97
-43.19
-44.29
-45.88
-48.53
-52.58
-58.00
-64.29
-70.48
-75.22
-77.09
-75.03
-68.71
-58.72
-46.48
-33.72
-22.02
-12.25
-4.37
2.42
9.34
17.47
27.37
38.79
50.69
61.56
69.87
74.62
75.69
73.80
70.14
65.71
60.88
55.23
48.01
38.75
27.82
16.59
6.86
0.12
-3.20
-3.88
-3.55
-3.93
-6.15
-10.53
-16.72
-24.02
-31.63
-38.76
-44.52
-47.96
-48.26
-44.97
-38.28
-29.11
-18.84
-8.99
-0.87
4.66
7.26
7.09
4.66
0.63
-4.39
-9.98
-15.85
-21.73
-27.17
-31.52
-34.07
-34.21
-31.72
-26.83
-20.21
-12.78
-5.50
0.82
5.72
9.24
11.97
14.87
18.92
24.57
31.39
37.98
42.50
43.39
40.17
33.60
25.43
17.57
11.33
7.07
4.33
2.47
1.14
0.43
0.67
1.88
3.52
4.54
3.81
0.72
-4.59
-11.27
-18.14
-24.11
-28.35
-30.33
-29.75
-26.61
-21.30
-14.77
-8.39
-3.57
-1.34
-2.01
-5.18
-10.09
-15.95
-22.16
-28.26
-33.80
-38.20
-40.81
-41.19
-39.22
-35.20
-29.79
-23.76
-17.80
-12.40
-7.88
-4.41
-2.13
-1.14
-1.41
-2.51
-3.45
-2.76
0.93
8.16
18.12
28.76
37.56
42.67
43.66
41.58
38.22
35.02
32.41
29.71
25.86
20.14
12.77
4.86
-2.06
-6.71
-8.48
-7.59
-4.78
-0.91
3.40
7.85
12.26
16.20
18.86
19.27
16.80
11.66
5.07
-1.23
-5.66
-7.51
-7.13
-5.64
-4.28
-3.92
-4.84
-6.88
-9.72
-13.14
-17.01
-21.26
-25.83
-30.68
-35.74
-40.94
-46.19
-51.21
-55.51
-58.41
-59.10
-56.91
-51.44
-42.71
-31.21
-17.74
-3.29
11.10
24.46
35.95
45.01
51.45
55.55
57.96
59.41
60.45
61.22
61.45
60.67
58.50
54.85
49.89
43.94
37.34
30.41
23.52
17.14
11.72
7.63
4.97
3.54
2.92
2.51
1.67
-0.16
-3.36
-7.86
-13.12
-18.14
-21.79
-23.26
-22.39
-19.76
-16.45
-13.65
-12.20
-12.40
-13.95
-16.15
-18.12
-19.18
-19.04
-17.96
-16.65
-16.00
-16.63
-18.66
-21.60
-24.55
-26.48
-26.50
-23.97
-18.61
-10.65
-0.99
8.79
16.77
21.41
22.29
20.43
18.02
17.46
20.35
26.91
36.09
46.33
56.34
65.60
74.32
82.98
91.86
100.81
109.39
117.03
123.24
127.62
129.74
129.03
124.84
116.54
103.71
86.31
64.77
40.00
13.37
-13.48
-38.94
-61.74
-81.04
-96.51
-108.04
-115.64
-119.27
-119.05
-115.47
-109.48
-102.41
-95.56
-89.86
-85.61
-82.68
-80.70
-79.35
-78.33
-77.30
-75.77
-73.26
-69.55
-64.86
-59.82
-55.12
-51.09
-47.51
-43.73
-39.01
-32.96
-25.79
-18.20
-11.11
-5.34
-1.34
0.86
1.74
2.18
3.22
5.81
10.48
17.12
25.05
33.26
40.75
46.81
50.99
53.02
52.62
49.51
43.55
35.02
24.80
14.28
5.02
-1.67
-5.18
-5.63
-3.76
-0.51
3.30
7.13
10.67
13.67
15.88
17.07
17.22
16.57
15.53
14.47
13.53
12.53
11.17
9.21
6.67
3.72
0.47
-3.19
-7.57
-12.91
-19.14
-25.79
-32.15
-37.63
-42.00
-45.53
-48.74
-52.11
-55.74
-59.25
-61.88
-62.75
-61.16
-56.81
-49.80
-40.49
-29.31
-16.61
-2.72
11.96
26.80
40.94
53.38
63.31
70.26
74.24
75.73
75.42
73.95
71.67
68.56
64.29
58.48
51.04
42.37
33.35
25.10
18.51
13.90
10.92
8.75
6.43
3.20
-1.32
-7.24
-14.43
-22.57
-31.06
-38.92
-44.86
-47.60
-46.32
-41.06
-32.81
-23.12
-13.61
-5.39
1.13
6.02
9.47
11.39
11.42
9.18
4.65
-1.63
-8.72
-15.65
-21.70
-26.57
-30.28
-32.90
-34.45
-34.86
-34.13
-32.42
-30.05
-27.38
-24.66
-21.99
-19.34
-16.58
-13.48
-9.67
-4.70
1.81
9.95
19.30
29.05
38.09
45.45
50.54
53.25
53.90
52.95
50.76
47.54
43.41
38.56
33.35
28.29
23.91
20.55
18.28
16.86
15.95
15.17
14.26
13.02
11.25
8.71
5.23
0.86
-3.96
-8.53
-12.07
-14.08
-14.67
-14.47
-14.42
-15.28
-17.31
-20.16
-23.11
-25.44
-26.78
-27.18
-26.98
-26.58
-26.18
-25.81
-25.36
-24.71
-23.86
-22.86
-21.84
-20.94
-20.29
-19.96
-19.96
-20.12
-20.10
-19.40
-17.52
-14.04
-8.78
-1.94
5.92
13.90
20.92
26.02
28.62
28.70
26.75
23.53
19.78
15.92
11.99
7.86
3.45
-0.98
-4.84
-7.40
-8.10
-6.86
-4.07
-0.43
3.47
7.38
11.42
15.74
20.20
24.24
27.05
28.05
27.30
25.60
24.12
23.81
24.87
26.70
28.19
28.31
26.66
23.58
19.90
16.41
13.49
10.88
7.86
3.64
-2.25
-9.67
-17.98
-26.20
-33.45
-39.10
-42.88
-44.83
-45.18
-44.22
-42.27
-39.56
-36.19
-31.99
-26.52
-19.22
-9.65
2.07
15.10
27.87
38.52
45.51
48.15
46.86
42.86
37.68
32.49
27.74
23.24
18.59
13.60
8.53
4.00
0.63
-1.29
-1.97
-2.00
-2.16
-3.06
-5.03
-8.10
-12.04
-16.47
-20.93
-24.86
-27.64
-28.63
-27.29
-23.37
-17.10
-9.29
-1.21
5.72
10.39
12.35
12.00
10.31
8.40
7.05
6.38
5.93
4.92
2.70
-0.96
-5.78
-11.01
-15.78
-19.23
-20.75
-19.98
-16.90
-11.92
-5.90
-0.10
4.09
5.62
4.17
0.29
-4.83
-9.84
-13.82
-16.49
-18.05
-18.79
-18.75
-17.60
-14.90
-10.47
-4.64
1.89
8.31
14.13
19.34
24.29
29.39
34.73
40.01
44.59
47.80
49.26
49.08
47.77
45.95
44.04
42.10
39.81
36.83
33.03
28.66
24.30
20.48
17.46
14.96
12.38
8.98
4.29
-1.76
-8.82
-16.31
-23.63
-30.29
-35.96
-40.44
-43.60
-45.39
-45.89
-45.29
-43.93
-42.13
-40.16
-38.16
-36.15
-34.02
-31.62
-28.78
-25.41
-21.50
-17.17
-12.53
-7.71
-2.79
2.15
6.94
11.29
14.91
17.67
19.68
21.32
23.01
24.97
27.05
28.80
29.70
29.34
27.61
24.69
20.97
16.96
13.24
10.37
8.80
8.72
9.97
12.13
14.64
17.09
19.29
21.32
23.26
25.11
26.58
27.24
26.66
24.68
21.43
17.30
12.73
8.06
3.39
-1.31
-6.12
-11.01
-15.83
-20.46
-24.83
-29.03
-33.21
-37.47
-41.77
-45.91
-49.67
-52.90
-55.65
-58.02
-60.07
-61.66
-62.36
-61.52
-58.52
-52.96
-44.84
-34.57
-22.88
-10.66
1.27
12.25
21.84
29.88
36.45
41.87
46.51
50.65
54.33
57.28
59.05
59.11
57.18
53.28
47.77
41.26
34.48
28.10
22.63
18.37
15.32
13.22
11.58
9.79
7.25
3.53
-1.56
-7.91
-15.03
-22.07
-27.89
-31.34
-31.62
-28.58
-22.84
-15.57
-8.14
-1.66
3.28
6.64
8.66
9.62
9.69
8.87
7.11
4.44
1.04
-2.84
-6.92
-10.93
-14.69
-18.10
-21.10
-23.58
-25.41
-26.42
-26.45
-25.48
-23.66
-21.33
-18.98
-17.06
-15.85
-15.45
-15.72
-16.40
-17.14
-17.46
-16.78
-14.49
-10.12
-3.63
4.48
13.22
21.42
28.14
32.99
36.12
38.00
39.03
39.25
38.39
36.15
32.49
27.80
22.83
18.36
14.88
12.41
10.62
9.03
7.37
5.69
4.27
3.38
3.02
2.86
2.35
1.03
-1.26
-4.34
-7.81
-11.28
-14.55
-17.50
-20.02
-21.90
-22.80
-22.44
-20.78
-18.08
-14.81
-11.50
-8.54
-6.14
-4.43
-3.47
-3.27
-3.79
-4.82
-6.00
-6.83
-6.91
-6.00
-4.12
-1.55
1.27
3.75
5.31
5.47
4.06
1.36
-1.90
-4.71
-6.12
-5.71
-3.70
-0.91
1.67
3.32
3.81
3.42
2.59
1.72
0.96
0.37
0.07
0.39
1.79
4.57
8.70
13.65
18.54
22.47
24.81
25.39
24.46
22.49
19.98
17.27
14.60
12.10
9.89
8.04
6.53
5.21
3.83
2.10
-0.15
-2.92
-5.98
-8.98
-11.61
-13.74
-15.51
-17.33
-19.68
-22.92
-27.11
-31.86
-36.47
-40.07
-41.94
-41.62
-39.08
-34.60
-28.71
-21.99
-15.03
-8.36
-2.35
2.79
7.05
10.64
13.85
16.96
20.11
23.22
26.04
28.26
29.66
30.26
30.29
30.10
29.95
29.96
29.97
29.76
29.10
27.91
26.27
24.37
22.34
20.20
17.82
14.99
11.49
7.26
2.41
-2.63
-7.20
-10.50
-11.89
-11.13
-8.50
-4.75
-0.81
2.51
4.78
5.91
6.05
5.39
4.10
2.34
0.31
-1.76
-3.71
-5.54
-7.42
-9.59
-12.14
-15.00
-17.84
-20.26
-21.92
-22.66
-22.51
-21.64
-20.32
-18.80
-17.29
-15.90
-14.63
-13.37
-11.97
-10.30
-8.26
-5.73
-2.61
1.21
5.75
10.93
16.49
22.07
27.32
32.05
36.16
39.62
42.27
43.81
43.89
42.30
39.25
35.45
31.96
29.80
29.56
31.13
33.65
35.86
36.53
34.85
30.69
24.54
17.29
9.92
3.25
-2.25
-6.56
-10.13
-13.77
-18.39
-24.70
-32.89
-42.51
-52.61
-62.01
-69.66
-74.85
-77.33
-77.22
-74.94
-71.13
-66.55
-61.92
-57.77
-54.25
-51.16
-48.10
-44.73
-40.99
-37.06
-33.26
-29.78
-26.54
-23.20
-19.31
-14.39
-8.25
-1.00
6.82
14.38
20.76
25.29
27.75
28.43
28.01
27.11
26.02
24.57
22.26
18.58
13.45
7.27
0.93
-4.45
-7.88
-8.73
-6.98
-3.19
1.60
6.23
9.79
11.89
12.68
12.64
12.31
11.94
11.50
10.82
9.82
8.66
7.70
7.26
7.26
7.24
6.40
4.07
0.04
-5.28
-10.97
-16.01
-19.68
-21.92
-23.22
-24.40
-26.25
-29.25
-33.47
-38.63
-44.23
-49.64
-54.18
-57.20
-58.14
-56.65
-52.70
-46.54
-38.64
-29.48
-19.44
-8.71
2.59
14.24
25.74
36.42
45.56
52.68
57.73
61.05
63.23
64.73
65.80
66.35
66.10
64.71
61.88
57.52
51.72
44.89
37.69
30.98
25.53
21.77
19.60
18.36
16.99
14.33
9.48
2.10
-7.41
-17.96
-27.98
-35.85
-40.39
-41.19
-38.74
-34.14
-28.73
-23.57
-19.29
-15.98
-13.50
-11.68
-10.41
-9.69
-9.51
-9.82
-10.52
-11.54
-12.93
-14.82
-17.38
-20.55
-24.03
-27.21
-29.45
-30.23
-29.41
-27.23
-24.21
-20.92
-17.83
-15.26
-13.37
-12.14
-11.34
-10.42
-8.55
-4.84
1.32
10.02
20.64
32.16
43.47
53.67
62.21
68.75
72.88
74.10
71.87
65.95
56.71
45.22
33.14
22.30
14.26
9.83
8.81
10.02
11.55
11.39
8.08
1.26
-8.25
-18.84
-28.75
-36.73
-42.42
-46.14
-48.53
-50.12
-51.08
-51.31
-50.65
-49.07
-46.74
-43.92
-40.84
-37.59
-34.17
-30.52
-26.65
-22.75
-19.19
-16.44
-14.83
-14.35
-14.65
-15.08
-15.05
-14.35
-13.15
-11.92
-11.07
-10.71
-10.57
-10.15
-8.95
-6.57
-2.78
2.50
9.20
17.05
25.51
33.82
41.09
46.55
49.61
50.08
48.12
44.30
39.47
34.66
30.80
28.50
27.85
28.43
29.52
30.41
30.64
30.09
28.85
27.10
24.90
22.18
18.81
14.72
10.15
5.57
1.70
-0.80
-1.45
-0.20
2.62
6.35
10.18
13.35
15.22
15.35
13.53
9.78
4.24
-2.77
-10.85
-19.50
-28.14
-36.17
-43.05
-48.41
-52.12
-54.26
-55.07
-54.79
-53.57
-51.44
-48.39
-44.39
-39.49
-33.79
-27.44
-20.63
-13.56
-6.53
0.16
6.24
11.64
16.55
21.30
26.20
31.35
36.45
40.90
44.06
45.55
45.35
43.86
41.55
38.65
35.05
30.30
23.97
15.97
6.83
-2.34
-10.11
-15.28
-17.23
-16.20
-13.09
-9.14
-5.34
-2.20
0.33
2.59
4.85
7.09
9.03
10.34
10.86
10.68
10.04
9.08
7.71
5.64
2.64
-1.35
-6.07
-11.09
-15.98
-20.45
-24.45
-28.08
-31.48
-34.78
-37.99
-41.09
-43.96
-46.47
-48.46
-49.73
-50.02
-49.05
-46.51
-42.13
-35.75
-27.44
-17.58
-6.91
3.63
13.16
21.12
27.46
32.60
37.10
41.40
45.52
49.14
51.80
53.26
53.61
53.23
52.52
51.62
50.33
48.24
45.03
40.67
35.54
30.25
25.45
21.47
18.25
15.29
11.92
7.51
1.84
-4.79
-11.64
-17.81
-22.50
-25.23
-25.87
-24.57
-21.61
-17.36
-12.33
-7.07
-2.20
1.81
4.76
6.75
8.06
8.98
9.58
9.69
9.04
7.40
4.79
1.48
-2.12
-5.57
-8.52
-10.81
-12.39
-13.36
-13.86
-14.06
-14.11
-14.03
-13.73
-13.01
-11.72
-9.91
-7.87
-6.05
-4.83
-4.39
-4.60
-5.17
-5.79
-6.28
-6.47
-6.16
-5.03
-2.71
1.01
5.96
11.61
17.10
21.57
24.35
25.18
24.15
21.71
18.52
15.26
12.54
10.70
9.86
9.93
10.66
11.70
12.52
12.59
11.43
8.91
5.30
1.31
-2.25
-4.77
-6.17
-6.85
-7.54
-8.90
-11.19
-14.22
-17.44
-20.17
-21.88
-22.27
-21.37
-19.34
-16.52
-13.21
-9.67
-6.10
-2.66
0.47
3.18
5.36
6.95
7.96
8.47
8.57
8.34
7.85
7.10
6.11
4.91
3.62
2.40
1.42
0.75
0.33
-0.08
-0.79
-2.04
-3.92
-6.39
-9.32
-12.64
-16.30
-20.19
-24.03
-27.24
-29.08
-28.86
-26.24
-21.38
-14.92
-7.71
-0.52
6.18
12.26
17.73
22.56
26.49
29.15
30.19
29.51
27.34
24.25
20.89
17.78
15.15
12.87
10.62
8.08
5.09
1.72
-1.75
-5.06
-8.05
-10.75
-13.33
-15.96
-18.72
-21.54
-24.28
-26.83
-29.16
-31.25
-32.93
-33.85
-33.44
-31.18
-26.89
-20.87
-13.87
-6.83
-0.56
4.60
8.75
12.31
15.73
19.27
22.89
26.35
29.29
31.42
32.61
32.89
32.39
31.25
29.56
27.28
24.35
20.80
16.74
12.45
8.26
4.43
1.16
-1.42
-3.19
-4.01
-3.88
-3.02
-1.97
-1.47
-2.17
-4.32
-7.64
-11.35
-14.47
-16.19
-16.04
-14.06
-10.63
-6.39
-2.06
1.71
4.46
6.02
6.56
6.44
6.05
5.64
5.27
4.88
4.47
4.17
4.23
4.90
6.23
8.01
9.82
11.20
11.84
11.60
10.59
8.95
6.85
4.39
1.62
-1.38
-4.49
-7.60
-10.69
-13.82
-17.08
-20.46
-23.76
-26.56
-28.39
-28.85
-27.79
-25.36
-21.89
-17.77
-13.36
-9.01
-5.08
-1.98
-0.07
0.48
-0.17
-1.55
-3.08
-4.32
-5.13
-5.76
-6.57
-7.83
-9.46
-11.07
-12.16
-12.31
-11.47
-9.93
-8.18
-6.70
-5.75
-5.37
-5.44
-5.90
-6.78
-8.19
-10.13
-12.33
-14.19
-14.88
-13.63
-10.07
-4.35
2.86
10.65
18.12
24.63
29.86
33.73
36.34
37.84
38.43
38.40
38.12
38.04
38.57
40.00
42.36
45.34
48.31
50.41
50.86
49.22
45.59
40.56
34.93
29.37
24.13
19.02
13.58
7.51
0.78
-6.26
-13.12
-19.35
-24.71
-29.07
-32.22
-33.82
-33.45
-30.93
-26.47
-20.78
-14.83
-9.46
-5.16
-1.92
0.53
2.49
4.03
4.97
5.06
4.06
1.96
-1.12
-4.89
-9.00
-13.06
-16.72
-19.70
-21.86
-23.24
-23.99
-24.34
-24.44
-24.40
-24.22
-23.92
-23.50
-23.03
-22.57
-22.11
-21.60
-20.84
-19.67
-17.83
-15.09
-11.21
-6.02
0.49
8.07
16.16
23.99
30.70
35.65
38.59
39.64
39.21
37.76
35.54
32.55
28.62
23.61
17.62
11.05
4.50
-1.46
-6.56
-10.89
-14.81
-18.70
-22.73
-26.84
-30.77
-34.32
-37.44
-40.23
-42.85
-45.41
-47.98
-50.68
-53.66
-56.93
-60.16
-62.55
-62.99
-60.48
-54.61
-45.75
-34.86
-23.07
-11.13
0.76
12.83
25.33
38.18
50.83
62.40
72.01
79.05
83.30
84.94
84.44
82.40
79.39
75.84
71.87
67.33
61.91
55.29
47.38
38.42
28.89
19.36
10.32
2.10
-5.07
-10.99
-15.42
-18.10
-18.90
-17.90
-15.45
-12.06
-8.30
-4.65
-1.42
1.22
3.18
4.42
4.90
4.57
3.36
1.24
-1.80
-5.70
-10.26
-15.15
-19.91
-23.99
-26.92
-28.48
-28.77
-28.19
-27.23
-26.22
-25.22
-23.97
-22.20
-19.84
-17.21
-14.96
-13.80
-14.24
-16.36
-19.75
-23.68
-27.32
-29.90
-30.86
-29.86
-26.75
-21.62
-14.78
-6.73
1.92
10.57
18.68
25.87
31.82
36.32
39.21
40.41
39.94
37.91
34.48
29.92
24.62
19.14
14.12
10.15
7.58
6.34
5.95
5.70
4.88
3.03
-0.07
-4.35
-9.53
-15.15
-20.50
-24.70
-26.84
-26.33
-23.10
-17.69
-11.10
-4.50
1.14
5.26
7.80
9.05
9.43
9.28
8.73
7.63
5.77
2.98
-0.62
-4.64
-8.51
-11.78
-14.25
-16.11
-17.72
-19.41
-21.29
-23.25
-25.11
-26.77
-28.37
-30.19
-32.50
-35.35
-38.61
-41.96
-44.99
-47.34
-48.60
-48.35
-46.16
-41.73
-34.97
-26.04
-15.26
-2.95
10.66
25.33
40.63
55.76
69.54
80.66
88.10
91.45
91.04
87.83
82.99
77.55
72.09
66.73
61.23
55.26
48.64
41.45
33.97
26.59
19.61
13.16
7.21
1.66
-3.58
-8.61
-13.49
-18.22
-22.67
-26.59
-29.61
-31.40
-31.81
-30.95
-29.11
-26.65
-23.84
-20.76
-17.41
-13.85
-10.30
-7.14
-4.81
-3.67
-3.90
-5.45
-8.05
-11.29
-14.60
-17.47
-19.49
-20.50
-20.59
-20.08
-19.36
-18.80
-18.59
-18.77
-19.19
-19.61
-19.75
-19.30
-18.01
-15.79
-12.77
-9.35
-6.09
-3.56
-2.14
-1.84
-2.34
-3.02
-3.24
-2.50
-0.62
2.22
5.61
9.04
12.06
14.35
15.73
16.12
15.50
13.93
11.61
8.92
6.39
4.49
3.54
3.51
4.15
5.13
6.17
7.15
8.05
8.74
8.91
8.06
5.64
1.29
-4.96
-12.61
-20.78
-28.36
-34.22
-37.49
-37.65
-34.68
-29.09
-21.81
-14.04
-6.97
-1.52
1.87
3.35
3.49
3.10
2.89
3.28
4.32
5.77
7.21
8.28
8.75
8.66
8.30
8.17
8.76
10.36
12.88
15.82
18.45
20.04
20.09
18.44
15.11
10.25
4.00
-3.44
-11.64
-19.89
-27.20
-32.58
-35.31
-35.13
-32.33
-27.64
-22.01
-16.36
-11.39
-7.45
-4.56
-2.54
-1.17
-0.30
0.14
0.24
0.31
0.89
2.58
5.78
10.38
15.61
20.31
23.29
23.85
21.96
18.25
13.66
8.98
4.62
0.46
-3.93
-9.06
-15.26
-22.51
-30.40
-38.16
-44.83
-49.43
-51.24
-49.93
-45.65
-38.96
-30.65
-21.49
-12.14
-2.95
6.03
14.98
24.23
33.94
43.93
53.53
61.72
67.47
70.19
69.97
67.50
63.69
59.21
54.21
48.44
41.62
33.76
25.41
17.39
10.43
4.81
0.23
-3.95
-8.40
-13.50
-19.27
-25.44
-31.54
-36.95
-40.98
-42.91
-42.15
-38.48
-32.18
-24.05
-15.16
-6.57
0.86
6.61
10.40
12.16
12.00
10.18
7.19
3.64
0.06
-3.26
-6.39
-9.71
-13.68
-18.60
-24.34
-30.31
-35.62
-39.38
-41.06
-40.73
-39.07
-37.10
-35.74
-35.47
-36.11
-36.87
-36.64
-34.27
-28.89
-20.10
-8.14
6.08
21.09
35.11
46.50
54.16
57.83
58.13
56.21
53.32
50.32
47.49
44.64
41.49
37.91
34.10
30.51
27.51
25.16
23.15
21.01
18.42
15.45
12.49
10.00
8.19
6.78
5.14
2.56
-1.29
-6.13
-11.07
-14.99
-16.99
-16.81
-14.86
-12.06
-9.39
-7.44
-6.26
-5.34
-3.98
-1.71
1.39
4.66
7.13
7.88
6.48
3.11
-1.45
-6.18
-10.09
-12.55
-13.32
-12.57
-10.72
-8.29
-5.79
-3.68
-2.17
-1.14
-0.14
1.51
4.38
8.67
14.01
19.54
24.23
27.34
28.70
28.76
28.36
28.32
29.13
30.69
32.43
33.60
33.56
31.98
29.03
25.23
21.31
17.98
15.70
14.51
14.09
13.79
12.82
10.52
6.59
1.23
-4.94
-11.14
-16.77
-21.56
-25.70
-29.58
-33.57
-37.82
-42.26
-46.69
-50.99
-55.04
-58.73
-61.78
-63.70
-63.94
-62.15
-58.40
-53.23
-47.52
-42.20
-37.89
-34.75
-32.52
-30.70
-28.87
-26.92
-25.04
-23.48
-22.39
-21.67
-21.08
-20.40
-19.68
-19.09
-18.76
-18.45
-17.50
-15.06
-10.53
-3.92
3.96
11.79
18.22
22.26
23.61
22.62
20.11
17.10
14.56
13.17
13.26
14.77
17.40
20.73
24.43
28.30
32.20
35.95
39.29
41.92
43.60
44.35
44.38
44.02
43.51
42.97
42.44
42.00
41.84
42.19
43.03
43.98
44.24
42.92
39.43
33.79
26.69
19.16
12.12
6.03
0.77
-4.16
-9.29
-14.90
-20.93
-27.10
-33.04
-38.42
-42.89
-46.04
-47.33
-46.31
-42.74
-36.89
-29.57
-21.99
-15.37
-10.53
-7.56
-5.80
-4.22
-1.90
1.54
5.74
9.88
13.07
14.90
15.68
16.24
17.46
19.80
22.96
25.97
27.57
26.64
22.58
15.41
5.77
-5.22
-16.05
-25.07
-30.87
-32.70
-30.84
-26.51
-21.52
-17.40
-14.87
-13.60
-12.59
-10.89
-8.09
-4.55
-1.08
1.56
3.03
3.46
3.20
2.50
1.29
-0.77
-4.12
-8.98
-15.17
-22.19
-29.43
-36.40
-43.01
-49.52
-56.28
-63.38
-70.47
-76.70
-81.06
-82.73
-81.39
-77.24
-70.86
-63.01
-54.38
-45.52
-36.68
-27.87
-18.79
-9.01
1.80
13.68
26.21
38.62
49.91
59.19
65.84
69.64
70.75
69.63
66.90
63.11
58.61
53.54
47.90
41.72
35.25
28.94
23.29
18.58
14.70
11.08
6.98
1.76
-4.73
-12.00
-19.02
-24.54
-27.48
-27.27
-23.90
-17.89
-10.07
-1.43
6.98
14.19
19.35
21.92
21.80
19.38
15.37
10.57
5.59
0.71
-4.08
-8.98
-14.15
-19.66
-25.30
-30.62
-34.99
-37.70
-38.21
-36.37
-32.55
-27.54
-22.39
-18.06
-15.09
-13.44
-12.48
-11.15
-8.39
-3.44
3.87
13.08
23.25
33.29
42.21
49.41
54.66
58.02
59.72
59.97
58.94
56.72
53.40
49.15
44.25
39.12
34.17
29.72
25.79
22.10
18.17
13.44
7.58
0.70
-6.65
-13.55
-18.95
-22.06
-22.65
-21.13
-18.52
-16.08
-14.97
-15.82
-18.60
-22.65
-26.94
-30.50
-32.62
-33.08
-32.12
-30.24
-28.09
-26.25
-25.21
-25.23
-26.40
-28.58
-31.40
-34.31
-36.71
-38.04
-37.96
-36.44
-33.85
-30.78
-27.90
-25.55
-23.47
-20.74
-16.13
-8.69
1.58
13.57
25.38
35.08
41.40
44.16
44.09
42.31
39.81
37.23
34.90
33.13
32.24
32.58
34.26
37.06
40.42
43.67
46.17
47.48
47.34
45.61
42.25
37.35
31.21
24.33
17.40
11.20
6.36
3.21
1.73
1.54
2.05
2.63
2.76
2.09
0.46
-2.16
-5.67
-9.96
-14.87
-20.22
-25.70
-30.91
-35.36
-38.57
-40.24
-40.38
-39.30
-37.50
-35.45
-33.40
-31.31
-29.00
-26.35
-23.46
-20.68
-18.48
-17.22
-16.93
-17.19
-17.20
-15.96
-12.62
-6.82
1.18
10.51
20.00
28.50
35.20
39.70
41.95
42.09
40.39
37.18
32.88
27.95
22.89
18.15
14.10
11.05
9.29
9.06
10.46
13.29
17.01
20.80
23.74
25.15
24.79
22.97
20.48
18.27
17.09
17.20
18.33
19.78
20.73
20.56
19.02
16.23
12.52
8.32
3.94
-0.44
-4.77
-9.04
-13.26
-17.46
-21.79
-26.50
-31.94
-38.29
-45.33
-52.30
-57.92
-60.80
-59.95
-55.16
-47.17
-37.41
-27.46
-18.62
-11.61
-6.57
-3.31
-1.37
-0.15
1.12
3.29
7.13
13.04
20.73
29.19
36.94
42.54
45.08
44.54
41.69
37.76
33.88
30.68
28.10
25.64
22.70
18.91
14.31
9.28
4.31
-0.18
-3.91
-6.77
-8.68
-9.61
-9.48
-8.22
-5.81
-2.36
1.90
6.59
11.23
15.33
18.48
20.43
21.08
20.54
18.98
16.57
13.44
9.65
5.23
0.26
-5.13
-10.65
-15.98
-20.85
-25.14
-28.95
-32.57
-36.21
-39.96
-43.63
-46.90
-49.47
-51.22
-52.17
-52.36
-51.73
-50.01
-46.89
-42.10
-35.61
-27.60
-18.33
-8.08
2.89
14.20
25.24
35.14
43.03
48.32
50.94
51.40
50.46
48.79
46.75
44.25
40.99
36.78
31.74
26.49
21.89
18.69
17.06
16.38
15.32
12.46
6.97
-0.88
-9.63
-17.26
-21.92
-22.70
-19.76
-14.10
-6.98
0.48
7.36
12.96
16.64
17.93
16.74
13.48
8.99
4.25
0.05
-3.33
-6.05
-8.67
-11.77
-15.73
-20.57
-25.85
-30.93
-35.08
-37.77
-38.79
-38.27
-36.59
-34.25
-31.83
-29.81
-28.47
-27.62
-26.56
-24.25
-19.73
-12.70
-3.76
5.65
13.92
19.90
23.34
24.80
25.29
25.69
26.45
27.55
28.74
29.69
30.14
29.90
28.80
26.76
23.84
20.35
16.73
13.42
10.71
8.60
6.86
5.15
3.16
0.77
-1.90
-4.51
-6.64
-7.91
-8.18
-7.61
-6.72
-6.23
-6.78
-8.72
-11.85
-15.49
-18.70
-20.64
-20.94
-19.80
-17.88
-15.99
-14.81
-14.72
-15.82
-17.96
-20.82
-23.93
-26.69
-28.44
-28.72
-27.45
-25.02
-22.18
-19.72
-18.12
-17.31
-16.71
-15.45
-12.73
-8.14
-1.79
5.68
13.27
19.85
24.36
26.15
25.12
21.78
17.13
12.42
8.75
6.72
6.40
7.34
8.95
10.76
12.63
14.61
16.74
18.87
20.52
21.03
19.83
16.63
11.64
5.45
-1.01
-6.73
-10.76
-12.38
-11.32
-7.80
-2.57
3.25
8.45
12.05
13.52
12.82
10.23
6.21
1.19
-4.43
-10.28
-15.88
-20.73
-24.41
-26.72
-27.71
-27.61
-26.62
-24.86
-22.29
-18.90
-14.81
-10.44
-6.39
-3.32
-1.70
-1.63
-2.71
-4.13
-4.85
-3.89
-0.66
4.80
11.73
18.89
24.92
28.73
29.84
28.41
25.11
20.80
16.28
12.02
8.12
4.43
0.72
-3.07
-6.70
-9.64
-11.29
-11.17
-9.22
-5.72
-1.28
3.44
7.75
11.00
12.51
11.79
8.71
3.76
-1.93
-6.81
-9.49
-9.11
-5.70
-0.11
6.39
12.43
16.90
19.17
19.02
16.67
12.64
7.68
2.66
-1.71
-5.00
-7.31
-9.13
-11.20
-14.10
-17.93
-22.18
-25.90
-28.05
-27.99
-25.67
-21.61
-16.74
-12.00
-8.08
-5.22
-3.13
-1.03
2.09
7.11
14.38
23.39
32.85
41.07
46.58
48.65
47.50
44.18
40.04
36.27
33.58
32.07
31.46
31.32
31.21
30.86
30.05
28.66
26.61
23.94
20.83
17.63
14.77
12.53
10.95
9.79
8.70
7.42
5.95
4.54
3.60
3.39
3.92
4.84
5.60
5.62
4.52
2.21
-1.17
-5.28
-9.85
-14.62
-19.40
-23.99
-28.05
-31.22
-33.23
-34.07
-34.02
-33.64
-33.47
-33.88
-34.88
-36.19
-37.31
-37.71
-36.89
-34.49
-30.35
-24.59
-17.61
-10.06
-2.60
4.29
10.48
16.20
21.84
27.66
33.58
39.11
43.54
46.25
46.92
45.66
42.87
39.01
34.38
29.10
23.19
16.79
10.30
4.37
-0.40
-3.66
-5.62
-6.94
-8.52
-11.12
-14.99
-19.76
-24.55
-28.33
-30.27
-30.02
-27.67
-23.69
-18.61
-12.97
-7.22
-1.76
2.99
6.64
8.88
9.56
8.80
6.87
4.19
1.13
-2.03
-5.21
-8.45
-11.89
-15.62
-19.58
-23.46
-26.78
-28.99
-29.77
-29.14
-27.58
-25.81
-24.62
-24.48
-25.35
-26.67
-27.42
-26.44
-22.77
-15.91
-6.05
5.88
18.41
29.87
38.77
44.22
46.13
45.07
42.06
38.10
33.90
29.72
25.54
21.23
16.78
12.44
8.59
5.53
3.39
1.94
0.78
-0.51
-2.18
-4.23
-6.49
-8.79
-11.04
-13.29
-15.62
-18.02
-20.32
-22.17
-23.22
-23.27
-22.37
-20.84
-19.07
-17.42
-16.11
-15.15
-14.42
-13.79
-13.20
-12.76
-12.71
-13.32
-14.76
-16.94
-19.52
-21.92
-23.55
-24.01
-23.26
-21.63
-19.66
-17.87
-16.54
-15.61
-14.63
-12.86
-9.51
-3.95
3.98
13.89
24.88
35.77
45.43
53.00
58.00
60.32
60.05
57.46
52.96
47.08
40.49
33.96
28.22
23.81
20.99
19.68
19.43
19.55
19.18
17.51
14.04
8.68
1.81
-5.86
-13.43
-20.11
-25.32
-28.84
-30.76
-31.35
-30.94
-29.80
-28.25
-26.66
-25.56
-25.53
-26.95
-29.81
-33.61
-37.51
-40.64
-42.45
-42.78
-41.88
-40.14
-37.90
-35.37
-32.66
-29.90
-27.24
-24.93
-23.14
-21.94
-21.25
-20.88
-20.61
-20.23
-19.59
-18.59
-17.16
-15.24
-12.74
-9.53
-5.40
-0.18
6.14
13.28
20.51
26.76
30.99
32.47
31.19
27.79
23.39
19.09
15.64
13.24
11.67
10.60
9.83
9.38
9.34
9.71
10.32
10.98
11.62
12.46
13.91
16.29
19.62
23.47
27.17
30.04
31.67
32.05
31.40
30.01
28.04
25.53
22.43
18.73
14.51
9.91
5.14
0.43
-4.06
-8.28
-12.41
-16.76
-21.70
-27.34
-33.42
-39.22
-43.81
-46.35
-46.41
-44.13
-40.05
-34.94
-29.47
-24.13
-19.14
-14.49
-10.00
-5.37
-0.19
5.87
12.85
20.42
27.78
33.97
38.15
40.04
39.97
38.69
36.98
35.22
33.29
30.74
27.12
22.39
17.01
11.69
7.07
3.36
0.17
-3.26
-7.67
-13.32
-19.78
-26.00
-30.58
-32.29
-30.45
-25.12
-17.01
-7.32
2.65
11.74
19.00
23.82
25.89
25.24
22.24
17.58
12.08
6.61
1.78
-2.11
-5.09
-7.45
-9.55
-11.68
-13.97
-16.36
-18.67
-20.69
-22.34
-23.65
-24.84
-26.24
-28.11
-30.48
-32.94
-34.60
-34.26
-30.72
-23.33
-12.31
1.10
15.00
27.39
36.80
42.69
45.44
45.95
45.21
43.91
42.30
40.41
38.13
35.41
32.28
28.87
25.33
21.86
18.64
15.75
13.12
10.54
7.74
4.53
0.84
-3.23
-7.45
-11.52
-15.00
-17.34
-18.02
-16.80
-14.00
-10.59
-7.98
-7.59
-10.27
-15.95
-23.66
-31.82
-38.86
-43.61
-45.61
-45.07
-42.73
-39.47
-36.11
-33.17
-30.88
-29.20
-28.00
-27.16
-26.58
-26.16
-25.79
-25.28
-24.47
-23.21
-21.29
-18.36
-13.93
-7.48
1.13
11.45
22.28
32.09
39.47
43.67
44.76
43.45
40.59
36.84
32.47
27.54
22.14
16.59
11.43
7.29
4.65
3.75
4.51
6.60
9.51
12.64
15.37
17.16
17.64
16.64
14.25
10.86
7.11
3.82
1.78
1.55
3.24
6.50
10.57
14.47
17.31
18.50
17.81
15.43
11.79
7.47
3.02
-1.18
-4.98
-8.48
-12.05
-16.14
-21.15
-27.16
-33.85
-40.45
-45.89
-49.14
-49.57
-47.15
-42.40
-36.22
-29.43
-22.57
-15.76
-8.84
-1.57
6.13
14.15
22.24
30.03
37.14
43.18
47.73
50.40
51.00
49.58
46.51
42.34
37.64
32.80
27.99
23.21
18.51
14.07
10.20
7.17
4.96
3.16
1.06
-2.11
-6.84
-13.04
-20.06
-26.81
-32.14
-35.14
-35.31
-32.57
-27.14
-19.48
-10.28
-0.49
8.76
16.31
21.25
23.22
22.48
19.79
16.08
12.15
8.42
4.93
1.45
-2.37
-6.77
-11.79
-17.21
-22.59
-27.38
-31.11
-33.46
-34.43
-34.22
-33.20
-31.75
-30.22
-28.74
-27.19
-25.21
-22.27
-17.95
-12.13
-5.21
2.09
8.93
14.70
19.26
22.84
25.95
29.03
32.31
35.77
39.14
41.99
43.89
44.45
43.51
41.21
37.99
34.38
30.80
27.32
23.72
19.69
15.09
10.18
5.49
1.61
-1.18
-2.96
-4.16
-5.20
-6.41
-7.88
-9.66
-11.90
-14.88
-18.90
-24.07
-30.13
-36.40
-41.92
-45.84
-47.58
-47.11
-44.87
-41.64
-38.21
-35.11
-32.49
-30.11
-27.61
-24.73
-21.50
-18.18
-15.09
-12.43
-10.08
-7.66
-4.55
-0.10
6.16
14.35
24.12
34.60
44.63
53.00
58.80
61.52
61.17
58.08
52.81
45.98
38.21
30.04
21.97
14.39
7.69
2.26
-1.47
-3.12
-2.56
-0.01
3.82
7.96
11.48
13.75
14.66
14.50
13.84
13.20
12.95
13.20
13.88
14.85
15.93
16.94
17.69
17.87
17.15
15.27
12.13
7.90
3.02
-1.98
-6.61
-10.60
-13.99
-17.06
-20.20
-23.75
-27.90
-32.59
-37.54
-42.38
-46.77
-50.50
-53.47
-55.63
-56.78
-56.55
-54.51
-50.38
-44.16
-36.20
-27.02
-17.11
-6.77
3.87
14.64
25.14
34.62
42.13
46.84
48.38
47.03
43.66
39.41
35.31
31.90
29.17
26.73
24.11
21.09
17.81
14.61
11.84
9.62
7.80
6.10
4.22
1.96
-0.75
-3.89
-7.33
-10.84
-14.02
-16.30
-17.11
-16.04
-13.07
-8.59
-3.40
1.58
5.54
8.02
8.98
8.73
7.79
6.60
5.42
4.20
2.63
0.30
-3.11
-7.59
-12.78
-17.91
-22.10
-24.65
-25.33
-24.48
-22.91
-21.53
-21.06
-21.65
-22.82
-23.63
-23.02
-20.17
-14.83
-7.43
1.02
9.19
15.86
20.24
22.21
22.24
21.27
20.32
20.16
21.16
23.22
25.99
28.97
31.72
33.93
35.42
36.11
35.95
34.93
32.97
29.96
25.76
20.31
13.83
6.86
0.21
-5.29
-9.05
-10.98
-11.39
-10.78
-9.60
-8.14
-6.62
-5.35
-4.90
-5.90
-8.80
-13.61
-19.80
-26.51
-32.83
-38.05
-41.78
-43.86
-44.29
-43.10
-40.37
-36.25
-31.02
-25.05
-18.75
-12.54
-6.73
-1.61
2.65
5.98
8.47
10.47
12.67
16.04
21.52
29.66
40.19
51.93
63.07
71.71
76.50
77.03
73.79
67.84
60.37
52.29
44.16
36.16
28.32
20.60
13.01
5.59
-1.53
-8.20
-14.24
-19.58
-24.23
-28.29
-31.88
-35.04
-37.65
-39.38
-39.82
-38.55
-35.33
-30.21
-23.55
-15.92
-8.06
-0.75
5.22
9.19
10.74
9.86
7.02
3.10
-0.86
-4.06
-6.18
-7.55
-8.95
-11.27
-15.14
-20.59
-27.02
-33.37
-38.46
-41.48
-42.21
-41.14
-39.19
-37.37
-36.43
-36.65
-37.78
-39.09
-39.45
-37.56
-32.35
-23.38
-11.23
2.54
15.76
26.34
33.04
35.74
35.30
33.04
30.10
27.05
23.98
20.72
17.23
13.72
10.58
8.15
6.56
5.63
4.96
4.02
2.27
-0.68
-4.97
-10.30
-15.95
-20.86
-23.94
-24.46
-22.29
-18.05
-12.85
-7.92
-4.27
-2.37
-2.20
-3.35
-5.23
-7.28
-9.05
-10.24
-10.71
-10.49
-9.73
-8.70
-7.76
-7.30
-7.59
-8.69
-10.40
-12.27
-13.77
-14.49
-14.27
-13.27
-11.87
-10.52
-9.53
-8.94
-8.46
-7.54
-5.58
-2.23
2.51
8.21
14.13
19.45
23.48
25.77
26.10
24.53
21.29
16.84
11.83
7.08
3.41
1.43
1.40
3.13
6.09
9.59
12.99
15.85
17.85
18.84
18.70
17.41
15.11
12.20
9.30
7.14
6.32
7.13
9.49
13.01
17.09
21.12
24.50
26.67
27.23
26.01
23.17
19.15
14.56
9.92
5.45
1.05
-3.60
-8.85
-14.88
-21.61
-28.61
-35.20
-40.46
-43.45
-43.46
-40.29
-34.44
-27.01
-19.41
-12.91
-8.16
-5.07
-2.90
-0.67
2.44
6.84
12.50
19.05
25.90
32.35
37.70
41.36
42.95
42.45
40.15
36.57
32.26
27.61
22.83
18.05
13.45
9.40
6.31
4.49
3.89
3.99
3.88
2.55
-0.71
-5.98
-12.51
-18.93
-23.64
-25.35
-23.52
-18.52
-11.38
-3.45
4.02
10.13
14.42
16.67
16.84
15.02
11.47
6.64
1.23
-4.03
-8.54
-12.06
-14.78
-17.19
-19.81
-22.89
-26.22
-29.18
-30.97
-31.03
-29.31
-26.35
-23.13
-20.72
-19.94
-21.12
-23.87
-27.08
-29.15
-28.37
-23.55
-14.41
-1.83
12.38
26.09
37.48
45.56
50.28
52.23
52.18
50.70
48.01
44.06
38.82
32.45
25.48
18.75
13.13
9.31
7.48
7.24
7.78
8.06
7.22
4.78
0.73
-4.52
-10.35
-16.03
-20.91
-24.49
-26.54
-27.15
-26.80
-26.23
-26.34
-27.83
-30.96
-35.36
-40.11
-44.01
-45.97
-45.40
-42.34
-37.46
-31.78
-26.33
-21.89
-18.82
-17.08
-16.34
-16.23
-16.40
-16.64
-16.84
-16.92
-16.87
-16.63
-16.14
-15.26
-13.71
-11.10
-7.06
-1.38
5.76
13.78
21.81
28.88
34.18
37.21
37.79
36.02
32.15
26.55
19.75
12.41
5.33
-0.63
-4.75
-6.52
-5.74
-2.62
2.27
8.05
13.65
18.08
20.64
21.12
19.76
17.21
14.21
11.36
9.07
7.53
6.82
6.99
8.01
9.61
11.27
12.21
11.69
9.26
5.01
-0.43
-6.10
-11.09
-14.84
-17.42
-19.42
-21.74
-25.16
-29.98
-35.77
-41.48
-45.74
-47.42
-45.97
-41.63
-35.29
-28.06
-20.97
-14.63
-9.21
-4.46
0.22
5.55
12.19
20.40
29.84
39.53
48.08
54.24
57.30
57.29
54.86
50.95
46.37
41.68
37.17
32.97
29.13
25.66
22.48
19.43
16.33
13.07
9.53
5.61
1.22
-3.57
-8.49
-13.02
-16.55
-18.63
-19.13
-18.16
-15.97
-12.67
-8.25
-2.71
3.59
9.80
14.72
17.22
16.68
13.33
8.12
2.31
-3.01
-7.31
-10.68
-13.60
-16.69
-20.32
-24.52
-28.94
-33.00
-36.01
-37.43
-37.03
-35.01
-32.04
-29.12
-27.29
-27.28
-29.09
-31.78
-33.62
-32.53
-26.84
-16.01
-1.04
15.76
31.49
43.64
50.92
53.51
52.71
50.25
47.58
45.46
43.95
42.62
40.97
38.66
35.64
32.14
28.56
25.36
22.86
21.09
19.69
17.99
15.19
10.74
4.55
-2.82
-10.33
-16.71
-20.87
-22.16
-20.57
-16.74
-11.85
-7.33
-4.55
-4.48
-7.39
-12.81
-19.70
-26.77
-32.90
-37.45
-40.28
-41.63
-41.89
-41.39
-40.33
-38.75
-36.59
-33.77
-30.32
-26.49
-22.83
-20.17
-19.32
-20.68
-23.73
-26.78
-27.29
-22.72
-11.60
5.53
26.09
46.16
61.85
70.61
71.96
67.26
58.90
49.29
40.03
31.78
24.46
17.72
11.33
5.37
0.23
-3.58
-5.56
-5.44
-3.29
0.46
5.09
9.65
13.22
15.01
14.60
11.99
7.61
2.23
-3.19
-7.76
-10.74
-11.76
-10.90
-8.72
-6.21
-4.51
-4.54
-6.72
-10.75
-15.83
-20.92
-25.21
-28.39
-30.72
-32.82
-35.40
-38.94
-43.51
-48.82
-54.18
-58.75
-61.70
-62.37
-60.51
-56.30
-50.36
-43.60
-36.88
-30.62
-24.53
-17.68
-8.89
2.49
16.05
30.27
42.97
52.26
57.22
58.22
56.49
53.49
50.22
47.07
43.98
40.82
37.63
34.60
31.80
29.11
26.23
22.89
19.09
15.11
11.31
7.83
4.46
0.58
-4.48
-11.13
-19.08
-27.29
-34.17
-38.08
-37.84
-33.18
-24.79
-14.17
-3.13
6.65
14.00
18.41
19.92
19.02
16.34
12.56
8.25
3.87
-0.32
-4.21
-7.85
-11.37
-14.85
-18.29
-21.51
-24.19
-25.98
-26.66
-26.22
-24.99
-23.49
-22.24
-21.53
-21.16
-20.49
-18.72
-15.25
-10.04
-3.63
3.14
9.47
14.91
19.39
23.06
26.07
28.51
30.42
31.94
33.21
34.34
35.19
35.39
34.51
32.34
29.06
25.23
21.49
18.31
15.79
13.63
11.37
8.51
4.74
0.07
-5.07
-9.88
-13.38
-14.67
-13.32
-9.63
-4.64
0.09
2.92
2.68
-0.94
-7.35
-15.19
-22.83
-28.82
-32.29
-33.10
-31.69
-28.89
-25.60
-22.59
-20.29
-18.83
-18.02
-17.52
-16.98
-16.19
-15.16
-14.09
-13.31
-13.10
-13.62
-14.70
-15.71
-15.60
-13.07
-7.15
2.32
14.30
26.75
37.23
43.76
45.52
42.95
37.40
30.41
23.19
16.36
10.12
4.53
-0.28
-4.03
-6.44
-7.30
-6.58
-4.48
-1.31
2.52
6.53
10.20
12.88
13.89
12.64
8.91
3.05
-3.85
-10.20
-14.36
-15.21
-12.53
-7.13
-0.47
5.81
10.41
12.61
12.34
9.93
5.97
1.11
-4.02
-8.93
-13.36
-17.34
-21.23
-25.52
-30.54
-36.15
-41.64
-45.81
-47.45
-45.78
-40.83
-33.35
-24.63
-15.96
-8.22
-1.69
4.04
9.93
17.07
26.28
37.71
50.61
63.45
74.39
81.91
85.28
84.78
81.42
76.43
70.82
65.12
59.44
53.69
47.78
41.72
35.60
29.51
23.54
17.72
12.12
6.77
1.71
-3.04
-7.47
-11.51
-15.02
-17.89
-20.04
-21.48
-22.27
-22.41
-21.77
-20.09
-17.17
-13.11
-8.44
-4.14
-1.33
-0.87
-3.07
-7.55
-13.47
-19.83
-25.85
-31.11
-35.61
-39.65
-43.54
-47.52
-51.52
-55.19
-57.97
-59.37
-59.10
-57.30
-54.46
-51.31
-48.54
-46.51
-45.05
-43.38
-40.25
-34.29
-24.49
-10.74
5.97
23.68
40.02
52.94
61.35
65.34
65.95
64.59
62.49
60.34
58.24
55.91
52.98
49.24
44.77
40.01
35.61
32.28
30.54
30.36
31.05
31.35
29.90
25.72
18.70
9.64
-0.05
-8.94
-15.97
-20.73
-23.31
-24.07
-23.45
-21.95
-20.19
-18.94
-18.89
-20.49
-23.60
-27.54
-31.29
-33.85
-34.65
-33.75
-31.84
-29.96
-29.22
-30.25
-32.99
-36.58
-39.71
-41.06
-39.85
-36.23
-31.14
-26.05
-22.29
-20.62
-20.80
-21.57
-20.92
-16.69
-7.43
6.93
24.76
43.03
58.22
67.50
69.63
65.27
56.54
46.13
36.43
28.95
24.23
22.04
21.73
22.56
23.84
25.10
26.00
26.41
26.20
25.16
22.90
19.06
13.51
6.54
-1.07
-8.25
-13.96
-17.41
-18.21
-16.34
-12.09
-6.09
0.72
7.08
11.60
13.14
11.15
5.85
-1.90
-10.94
-20.25
-29.21
-37.52
-45.06
-51.65
-56.91
-60.33
-61.45
-60.02
-56.07
-49.99
-42.37
-33.98
-25.57
-17.88
-11.54
-7.00
-4.46
-3.60
-3.51
-2.76
0.20
6.43
15.95
27.57
39.16
48.45
53.83
54.90
52.46
47.99
42.99
38.42
34.50
30.91
27.07
22.57
17.34
11.61
5.89
0.71
-3.45
-6.31
-7.82
-8.27
-8.26
-8.54
-9.79
-12.21
-15.29
-17.90
-18.58
-16.19
-10.39
-1.95
7.50
15.99
21.91
24.39
23.48
19.84
14.41
8.09
1.53
-4.82
-10.62
-15.62
-19.70
-22.92
-25.70
-28.67
-32.44
-37.25
-42.73
-47.95
-51.81
-53.59
-53.28
-51.55
-49.38
-47.52
-46.09
-44.55
-41.95
-37.36
-30.07
-19.84
-6.79
8.52
25.05
41.30
55.51
66.05
71.92
73.12
70.56
65.76
60.20
54.86
50.02
45.43
40.74
35.82
30.95
26.65
23.41
21.33
20.07
18.90
16.98
13.71
8.98
3.24
-2.66
-7.81
-11.58
-13.84
-14.84
-14.99
-14.45
-13.08
-10.59
-6.92
-2.63
1.22
3.42
3.22
0.76
-3.03
-6.82
-9.56
-10.89
-11.26
-11.56
-12.64
-14.93
-18.24
-21.89
-25.00
-26.85
-27.13
-26.01
-24.07
-22.07
-20.75
-20.57
-21.53
-22.99
-23.72
-22.16
-17.02
-7.96
4.06
16.94
28.14
35.73
39.07
38.95
37.09
35.22
34.41
34.85
36.07
37.43
38.46
38.89
38.58
37.35
35.01
31.52
27.08
22.18
17.35
12.94
8.88
4.67
-0.34
-6.55
-13.80
-21.31
-27.93
-32.57
-34.56
-33.84
-30.86
-26.39
-21.30
-16.57
-13.19
-12.12
-14.01
-18.92
-26.06
-33.98
-40.95
-45.55
-47.20
-46.24
-43.65
-40.62
-37.99
-36.02
-34.42
-32.64
-30.24
-27.15
-23.72
-20.54
-18.27
-17.18
-17.05
-17.00
-15.74
-11.92
-4.65
6.02
19.06
32.68
44.88
54.09
59.56
61.34
60.00
56.28
50.79
43.97
36.23
28.07
20.08
12.87
6.93
2.55
-0.17
-1.27
-0.97
0.36
2.24
4.23
6.05
7.68
9.23
10.79
12.14
12.86
12.50
10.98
8.75
6.72
5.78
6.34
7.99
9.71
10.29
8.93
5.52
0.58
-5.09
-10.86
-16.44
-21.89
-27.40
-33.07
-38.91
-44.78
-50.48
-55.70
-59.95
-62.52
-62.70
-60.02
-54.49
-46.72
-37.69
-28.37
-19.37
-10.78
-2.29
6.57
16.08
26.15
36.31
45.84
54.05
60.43
64.79
67.19
67.88
67.14
65.23
62.29
58.38
53.55
47.90
41.62
35.02
28.40
22.04
16.18
10.91
6.15
1.64
-3.01
-8.07
-13.55
-19.04
-23.71
-26.59
-26.87
-24.31
-19.31
-12.82
-6.01
0.03
4.48
6.85
6.92
4.69
0.44
-5.28
-11.63
-17.76
-23.01
-27.07
-30.11
-32.54
-34.82
-37.17
-39.54
-41.60
-42.93
-43.14
-42.03
-39.63
-36.21
-32.20
-28.09
-24.34
-21.19
-18.61
-16.19
-13.28
-9.18
-3.43
4.01
12.63
21.57
29.87
36.76
41.82
44.99
46.43
46.43
45.34
43.51
41.27
38.82
36.21
33.28
29.79
25.57
20.67
15.32
9.84
4.46
-0.69
-5.55
-9.93
-13.45
-15.64
-16.18
-15.15
-13.10
-10.87
-9.20
-8.49
-8.71
-9.55
-10.74
-12.14
-13.75
-15.54
-17.20
-18.25
-18.15
-16.64
-13.87
-10.42
-7.04
-4.36
-2.64
-1.75
-1.30
-0.83
-0.02
1.24
2.84
4.54
6.05
7.06
7.41
7.14
6.56
6.21
6.65
8.21
10.85
14.10
17.24
19.63
20.87
20.93
20.05
18.52
16.56
14.27
11.69
8.88
6.05
3.53
1.70
0.93
1.38
3.04
5.72
9.14
12.91
16.60
19.72
21.79
22.53
21.97
20.50
18.76
17.38
16.73
16.81
17.35
17.99
18.32
17.96
16.49
13.46
8.59
2.01
-5.64
-13.31
-19.98
-25.01
-28.43
-30.90
-33.34
-36.61
-41.23
-47.23
-54.27
-61.67
-68.48
-73.61
-75.98
-74.85
-70.08
-62.30
-52.68
-42.51
-32.74
-23.61
-14.80
-5.75
3.86
13.87
23.72
32.74
40.52
47.10
52.82
58.05
62.85
66.85
69.33
69.60
67.37
62.88
56.85
50.23
43.91
38.49
34.32
31.45
29.64
28.23
26.17
22.21
15.40
5.58
-6.30
-18.42
-28.70
-35.55
-38.39
-37.67
-34.53
-30.25
-25.93
-22.24
-19.56
-17.97
-17.35
-17.41
-17.78
-18.10
-18.17
-17.98
-17.68
-17.54
-17.88
-18.97
-21.01
-24.01
-27.76
-31.72
-35.28
-37.85
-39.08
-38.96
-37.74
-35.70
-32.95
-29.30
-24.37
-17.89
-10.03
-1.49
6.66
13.39
18.14
21.01
22.68
24.08
25.91
28.45
31.46
34.34
36.40
37.10
36.17
33.72
30.14
26.04
22.09
18.84
16.61
15.44
15.06
14.83
13.86
11.26
6.44
-0.53
-8.73
-16.63
-22.56
-25.37
-24.86
-21.87
-17.88
-14.48
-12.87
-13.55
-16.34
-20.51
-25.05
-28.85
-30.92
-30.68
-28.13
-23.89
-19.03
-14.76
-12.04
-11.28
-12.32
-14.54
-17.05
-19.01
-19.82
-19.17
-17.22
-14.48
-11.74
-9.76
-8.89
-8.89
-8.98
-8.16
-5.76
-1.68
3.52
8.97
13.94
18.01
21.12
23.22
24.14
23.52
21.09
17.05
12.12
7.44
4.09
2.69
3.20
5.05
7.41
9.59
11.18
12.03
12.06
11.14
8.99
5.34
0.17
-6.07
-12.49
-17.92
-21.29
-22.02
-20.16
-16.38
-11.67
-7.03
-3.22
-0.71
0.34
-0.06
-1.74
-4.44
-7.81
-11.45
-15.02
-18.35
-21.48
-24.56
-27.68
-30.68
-33.09
-34.17
-33.17
-29.58
-23.41
-15.19
-5.93
3.22
11.17
17.17
21.01
23.12
24.54
26.66
30.73
37.40
46.35
56.34
65.70
72.95
77.32
78.87
78.19
75.98
72.62
68.22
62.78
56.45
49.59
42.59
35.62
28.57
21.16
13.33
5.40
-1.87
-7.67
-11.50
-13.49
-14.32
-14.87
-15.67
-16.63
-17.09
-16.14
-13.15
-8.08
-1.58
5.31
11.48
16.05
18.52
18.68
16.55
12.33
6.40
-0.63
-8.00
-14.97
-20.99
-25.88
-29.87
-33.42
-37.00
-40.80
-44.62
-47.97
-50.23
-50.98
-50.10
-47.83
-44.61
-40.92
-37.08
-33.12
-28.72
-23.32
-16.30
-7.35
3.31
14.81
25.90
35.28
42.10
46.15
47.78
47.64
46.32
44.21
41.53
38.46
35.24
32.10
29.13
26.30
23.45
20.45
17.31
14.17
11.16
8.24
5.11
1.28
-3.80
-10.43
-18.47
-27.20
-35.40
-41.57
-44.31
-42.76
-36.98
-28.06
-17.90
-8.60
-1.88
1.42
1.41
-1.09
-5.05
-9.59
-14.21
-18.65
-22.78
-26.49
-29.76
-32.72
-35.69
-39.00
-42.79
-46.73
-50.08
-52.00
-51.88
-49.64
-45.85
-41.51
-37.72
-35.26
-34.31
-34.21
-33.62
-30.85
-24.49
-14.03
-0.19
15.25
30.02
42.17
50.68
55.63
57.92
58.66
58.65
58.13
56.89
54.52
50.70
45.40
38.95
31.93
25.05
19.01
14.36
11.39
9.97
9.62
9.56
8.88
6.82
3.11
-1.97
-7.61
-12.81
-16.73
-19.06
-19.96
-19.85
-19.14
-18.02
-16.48
-14.50
-12.28
-10.19
-8.64
-7.90
-7.94
-8.51
-9.36
-10.40
-11.82
-13.94
-16.95
-20.77
-24.95
-28.84
-31.81
-33.52
-34.02
-33.68
-33.04
-32.53
-32.40
-32.57
-32.63
-31.89
-29.47
-24.59
-16.86
-6.60
5.09
16.59
26.24
32.98
36.69
38.12
38.51
38.91
39.79
40.93
41.66
41.23
39.19
35.49
30.46
24.66
18.76
13.36
8.92
5.69
3.64
2.49
1.74
0.85
-0.61
-2.79
-5.50
-8.20
-10.17
-10.75
-9.63
-7.10
-3.98
-1.51
-0.82
-2.64
-6.97
-13.14
-20.06
-26.51
-31.49
-34.39
-35.03
-33.64
-30.79
-27.20
-23.56
-20.26
-17.33
-14.54
-11.64
-8.59
-5.72
-3.51
-2.43
-2.61
-3.70
-4.92
-5.18
-3.33
1.49
9.55
20.27
32.17
43.26
51.58
55.86
55.91
52.53
47.12
41.01
35.01
29.25
23.50
17.53
11.41
5.65
0.95
-2.06
-3.11
-2.45
-0.80
0.92
1.88
1.67
0.37
-1.51
-3.29
-4.33
-4.22
-2.71
0.37
5.10
11.38
18.71
26.03
31.92
34.89
34.02
29.32
21.77
12.97
4.51
-2.56
-8.06
-12.43
-16.43
-20.71
-25.51
-30.75
-36.13
-41.31
-45.97
-49.69
-51.97
-52.21
-49.99
-45.24
-38.40
-30.33
-21.95
-13.85
-6.12
1.55
9.52
17.82
25.92
32.97
38.08
40.78
41.14
39.77
37.45
34.88
32.43
30.19
27.99
25.62
22.88
19.69
16.14
12.56
9.38
7.01
5.58
4.82
4.06
2.58
-0.08
-3.84
-8.01
-11.58
-13.51
-13.05
-9.90
-4.20
3.52
12.33
21.02
28.19
32.60
33.49
30.94
25.78
19.32
12.84
7.17
2.51
-1.43
-5.12
-8.93
-12.97
-17.10
-20.99
-24.17
-26.17
-26.57
-25.24
-22.42
-18.76
-15.20
-12.70
-11.94
-13.12
-15.79
-18.90
-20.97
-20.43
-16.17
-8.01
3.05
15.06
25.75
33.39
37.36
38.31
37.59
36.51
35.73
35.06
33.75
31.10
26.90
21.62
16.15
11.40
7.88
5.49
3.70
1.86
-0.44
-3.17
-5.94
-8.19
-9.44
-9.43
-8.08
-5.54
-2.09
1.76
5.25
7.52
7.81
5.80
1.73
-3.65
-9.39
-14.69
-19.08
-22.47
-25.01
-26.99
-28.79
-30.80
-33.37
-36.69
-40.64
-44.74
-48.27
-50.50
-51.01
-49.77
-47.20
-44.01
-40.95
-38.58
-36.98
-35.65
-33.57
-29.55
-22.79
-13.34
-2.26
8.78
18.15
24.85
28.78
30.47
30.62
29.66
27.72
24.90
21.56
18.38
16.13
15.30
15.89
17.46
19.53
21.73
23.93
25.99
27.57
28.17
27.26
24.57
20.33
15.17
9.90
5.28
1.88
-0.05
-0.41
0.66
2.80
5.41
7.66
8.67
7.76
4.58
-0.78
-7.92
-16.23
-24.96
-33.37
-40.69
-46.21
-49.44
-50.19
-48.61
-45.18
-40.53
-35.26
-29.86
-24.64
-19.80
-15.48
-11.83
-9.02
-7.12
-5.93
-4.95
-3.35
-0.29
4.75
11.62
19.53
27.28
33.83
38.60
41.55
42.97
43.08
41.85
39.11
34.75
29.03
22.46
15.68
9.17
3.26
-1.75
-5.41
-7.19
-6.71
-4.07
0.07
4.68
8.87
12.23
14.90
17.27
19.57
21.58
22.71
22.35
20.31
16.98
13.19
9.76
7.11
4.99
2.76
-0.25
-4.34
-9.24
-14.23
-18.50
-21.59
-23.53
-24.88
-26.36
-28.55
-31.69
-35.61
-39.91
-44.10
-47.79
-50.66
-52.39
-52.61
-50.97
-47.25
-41.54
-34.33
-26.42
-18.57
-11.20
-4.21
2.89
10.62
19.13
28.02
36.45
43.48
48.50
51.35
52.28
51.72
50.04
47.47
44.17
40.31
36.09
31.68
27.14
22.46
17.59
12.65
7.90
3.68
0.18
-2.68
-5.28
-8.09
-11.43
-15.16
-18.63
-20.86
-20.88
-18.08
-12.42
-4.51
4.63
13.79
21.85
27.92
31.47
32.33
30.71
27.15
22.44
17.44
12.90
9.22
6.34
3.84
1.06
-2.54
-7.22
-12.75
-18.54
-23.80
-27.83
-30.20
-30.88
-30.26
-29.02
-27.95
-27.69
-28.54
-30.21
-31.82
-32.10
-29.84
-24.36
-15.87
-5.45
5.29
14.74
21.82
26.22
28.34
28.96
28.91
28.73
28.62
28.47
28.07
27.24
25.94
24.29
22.50
20.82
19.44
18.41
17.56
16.44
14.31
10.32
3.97
-4.53
-13.95
-22.26
-27.34
-27.85
-23.75
-16.46
-8.21
-1.26
2.84
3.58
1.30
-3.13
-8.67
-14.24
-18.87
-21.76
-22.45
-20.99
-17.92
-14.11
-10.48
-7.72
-6.15
-5.73
-6.15
-7.01
-7.91
-8.51
-8.66
-8.44
-8.15
-8.22
-8.87
-9.88
-10.40
-9.23
-5.30
1.67
10.88
20.65
29.01
34.46
36.40
35.17
31.62
26.65
20.92
14.93
9.14
4.13
0.54
-1.19
-1.09
0.33
2.28
4.12
5.65
7.16
9.10
11.63
14.24
15.85
15.19
11.50
5.01
-2.98
-10.66
-16.37
-19.21
-19.29
-17.43
-14.71
-12.10
-10.20
-9.32
-9.56
-10.94
-13.35
-16.53
-20.05
-23.40
-26.22
-28.46
-30.41
-32.59
-35.37
-38.69
-41.92
-44.01
-43.91
-40.98
-35.33
-27.78
-19.54
-11.84
-5.52
-0.92
2.13
4.24
6.27
9.14
13.58
19.83
27.46
35.39
42.28
46.99
48.97
48.37
45.88
42.32
38.30
34.10
29.72
25.07
20.04
14.62
8.82
2.69
-3.64
-9.81
-15.34
-19.61
-22.14
-22.73
-21.59
-19.28
-16.55
-14.02
-12.05
-10.58
-9.23
-7.51
-4.99
-1.57
2.50
6.71
10.43
13.10
14.39
14.26
12.85
10.46
7.41
4.03
0.60
-2.57
-5.26
-7.35
-8.91
-10.21
-11.64
-13.53
-16.06
-19.20
-22.73
-26.38
-29.87
-32.97
-35.39
-36.81
-36.87
-35.28
-31.94
-26.96
-20.63
-13.34
-5.44
2.75
10.93
18.73
25.76
31.57
35.76
38.07
38.47
37.21
34.74
31.59
28.19
24.76
21.29
17.65
13.78
9.85
6.24
3.38
1.56
0.67
0.23
-0.48
-2.14
-5.16
-9.47
-14.59
-19.75
-24.02
-26.55
-26.68
-24.09
-18.96
-11.97
-4.21
3.05
8.76
12.39
14.05
14.29
13.74
12.89
11.80
10.31
8.16
5.25
1.69
-2.25
-6.25
-9.99
-13.25
-15.77
-17.32
-17.73
-16.94
-15.10
-12.59
-9.93
-7.63
-6.04
-5.15
-4.61
-3.86
-2.30
0.42
4.25
8.81
13.58
18.07
22.02
25.34
28.08
30.24
31.78
32.68
32.97
32.76
32.20
31.34
30.09
28.25
25.66
22.40
18.77
15.20
12.04
9.34
6.87
4.23
1.16
-2.32
-5.86
-9.01
-11.43
-13.10
-14.28
-15.44
-16.94
-18.99
-21.54
-24.38
-27.20
-29.68
-31.48
-32.31
-31.95
-30.28
-27.34
-23.38
-18.81
-14.13
-9.78
-6.08
-3.12
-0.80
1.03
2.53
3.79
4.85
5.73
6.48
7.19
7.88
8.57
9.26
10.06
11.13
12.63
14.60
16.78
18.66
19.54
18.83
16.15
11.53
5.34
-1.67
-8.57
-14.35
-18.13
-19.33
-17.84
-14.02
-8.69
-2.82
2.66
7.07
10.08
11.72
12.25
12.10
11.70
11.34
11.14
11.07
11.06
11.11
11.38
12.05
13.12
14.30
14.96
14.33
11.86
7.55
1.94
-4.04
-9.56
-14.14
-17.88
-21.24
-24.74
-28.66
-32.88
-36.90
-40.06
-41.69
-41.31
-38.71
-34.01
-27.60
-20.16
-12.48
-5.27
0.96
5.99
9.83
12.63
14.58
15.97
17.21
18.94
21.86
26.53
33.05
40.91
49.07
56.35
61.89
65.43
67.34
68.36
69.13
70.01
70.96
71.65
71.64
70.46
67.68
62.97
56.10
47.09
36.22
24.07
11.48
-0.60
-11.20
-19.47
-24.91
-27.45
-27.58
-26.22
-24.41
-22.92
-22.05
-21.67
-21.47
-21.28
-21.16
-21.41
-22.26
-23.78
-25.76
-27.84
-29.63
-30.86
-31.38
-31.17
-30.37
-29.25
-28.21
-27.63
-27.71
-28.31
-29.00
-29.22
-28.55
-26.95
-24.74
-22.44
-20.49
-19.08
-18.12
-17.44
-16.81
-15.80
-13.46
-8.35
0.94
14.89
32.29
50.21
65.10
74.27
77.09
75.12
71.07
67.20
64.28
61.54
57.60
51.63
43.96
35.87
28.75
23.34
19.47
16.32
13.02
9.01
4.32
-0.55
-4.97
-8.56
-11.41
-14.05
-17.14
-20.95
-25.15
-28.86
-31.21
-31.94
-31.63
-31.49
-32.62
-35.36
-39.09
-42.61
-44.81
-45.29
-44.38
-42.83
-41.21
-39.76
-38.42
-37.23
-36.51
-36.80
-38.46
-41.35
-44.70
-47.38
-48.51
-47.75
-45.51
-42.64
-39.93
-37.63
-35.29
-31.93
-26.47
-18.29
-7.62
4.38
15.91
25.04
30.37
31.39
28.49
22.67
15.07
6.68
-1.76
-9.54
-15.85
-19.79
-20.64
-18.19
-12.85
-5.60
2.37
9.94
16.32
21.10
24.23
25.85
26.21
25.51
23.75
20.82
16.62
11.41
5.89
1.13
-1.90
-2.81
-2.04
-0.66
0.09
-0.54
-2.56
-5.40
-8.30
-10.86
-13.19
-15.80
-19.28
-24.05
-30.12
-37.09
-44.22
-50.56
-55.05
-56.81
-55.28
-50.41
-42.62
-32.69
-21.44
-9.62
2.20
13.65
24.53
34.87
44.85
54.76
64.69
74.36
83.06
89.82
93.75
94.32
91.39
85.06
75.56
63.29
48.95
33.71
19.03
6.20
-4.10
-11.95
-17.91
-22.54
-26.09
-28.67
-30.60
-32.66
-35.90
-40.98
-47.58
-54.19
-58.71
-59.37
-55.52
-47.87
-37.99
-27.56
-17.80
-9.28
-2.22
3.18
6.59
7.64
6.28
2.90
-1.66
-6.44
-10.66
-14.03
-16.75
-19.28
-22.10
-25.34
-28.80
-31.98
-34.33
-35.47
-35.29
-33.97
-31.87
-29.43
-26.98
-24.72
-22.67
-20.69
-18.51
-15.81
-12.26
-7.67
-1.97
4.65
11.80
18.98
25.64
31.39
36.10
39.86
42.94
45.54
47.64
48.90
48.78
46.70
42.41
36.10
28.47
20.45
12.91
6.42
1.15
-3.01
-6.26
-8.70
-10.37
-11.34
-11.78
-11.99
-12.29
-12.86
-13.72
-14.78
-15.99
-17.41
-19.18
-21.34
-23.64
-25.60
-26.59
-26.16
-24.23
-21.03
-17.03
-12.68
-8.27
-3.93
0.27
4.22
7.74
10.64
12.78
14.18
14.97
15.39
15.69
16.15
17.04
18.55
20.75
23.41
26.07
28.11
28.98
28.43
26.63
23.99
20.98
17.88
14.68
11.19
7.26
2.93
-1.52
-5.63
-9.02
-11.40
-12.70
-12.92
-12.11
-10.35
-7.80
-4.78
-1.79
0.64
2.14
2.64
2.45
2.08
2.01
2.50
3.53
4.85
6.23
7.57
8.89
10.29
11.78
13.22
14.41
15.15
15.36
15.08
14.46
13.66
12.87
12.23
11.83
11.69
11.73
11.72
11.38
10.39
8.52
5.75
2.36
-1.12
-4.03
-5.84
-6.32
-5.65
-4.22
-2.39
-0.28
2.25
5.41
9.30
13.84
18.76
23.74
28.47
32.59
35.71
37.47
37.67
36.46
34.34
31.95
29.76
27.87
26.07
24.07
21.88
19.94
18.88
19.21
20.88
23.27
25.39
26.45
26.28
25.57
25.65
28.12
34.38
45.25
60.70
79.53
99.22
116.10
126.05
125.71
113.70
91.30
62.13
30.87
1.65
-23.10
-42.91
-58.57
-71.11
-81.05
-88.41
-92.91
-94.52
-93.52
-90.40
-85.59
-79.41
-72.06
-63.79
-54.94
-45.95
-37.22
-28.95
-20.89
-12.21
-1.74
11.52
27.47
44.42
59.15
67.95
68.19
59.55
44.30
26.32
9.39
-4.29
-14.63
-23.07
-31.38
-40.63
-50.70
-60.65
-69.26
-75.52
-78.81
-78.79
-75.29
-68.30
-58.23
-46.15
-33.87
-23.75
-17.97
-17.64
-22.24
-29.57
-36.65
-40.96
-41.49
-39.15
-36.12
-34.71
-36.24
-40.51
-46.19
-51.52
-55.13
-56.44
-55.61
-53.19
-49.87
-46.34
-43.28
-41.34
-41.06
-42.61
-45.64
-49.31
-52.46
-53.99
-53.23
-50.09
-45.08
-39.18
-33.48
-28.89
-25.77
-23.78
-22.04
-19.53
-15.68
-10.67
-5.42
-1.05
1.70
2.84
3.11
3.48
4.70
6.97
10.01
13.44
16.95
20.47
24.01
27.52
30.79
33.57
35.67
37.05
37.71
37.69
36.97
35.42
32.90
29.33
24.73
19.30
13.43
7.67
2.72
-0.64
-1.68
0.05
4.44
10.65
17.22
22.46
24.90
23.81
19.30
12.18
3.56
-5.46
-13.98
-21.31
-26.84
-30.04
-30.55
-28.36
-23.76
-17.43
-10.20
-2.89
3.79
9.43
13.95
17.60
20.83
24.17
27.98
32.38
37.29
42.43
47.44
51.92
55.36
57.29
57.29
55.24
51.40
46.40
40.97
35.64
30.48
25.12
18.99
11.72
3.42
-5.12
-12.68
-17.92
-19.85
-18.27
-13.78
-7.66
-1.35
4.00
7.86
10.28
11.68
12.46
12.82
12.75
12.20
11.30
10.30
9.49
8.95
8.47
7.66
6.18
3.94
1.14
-1.84
-4.74
-7.49
-10.30
-13.47
-17.21
-21.55
-26.31
-31.19
-35.80
-39.69
-42.32
-43.15
-41.73
-37.87
-31.73
-23.88
-15.11
-6.32
1.77
8.71
14.39
18.98
22.77
25.99
28.75
30.94
32.30
32.59
31.70
29.73
26.95
23.68
20.19
16.58
12.83
8.87
4.71
0.48
-3.52
-6.91
-9.44
-11.11
-12.23
-13.31
-14.79
-16.80
-19.07
-21.02
-22.04
-21.78
-20.17
-17.37
-13.48
-8.46
-2.24
5.13
13.18
21.13
28.05
33.27
36.60
38.40
39.26
39.75
40.09
40.21
39.87
38.89
37.35
35.57
34.00
33.03
32.82
33.32
34.28
35.38
36.35
37.01
37.26
37.10
36.60
35.94
35.42
35.48
36.55
38.98
42.81
47.71
52.96
57.48
60.08
59.70
55.70
48.08
37.44
24.87
11.61
-1.18
-12.68
-22.48
-30.48
-36.86
-41.93
-46.05
-49.44
-52.08
-53.63
-53.56
-51.42
-47.08
-40.96
-33.98
-27.28
-21.83
-18.23
-16.47
-16.12
-16.43
-16.61
-16.06
-14.51
-12.12
-9.35
-6.88
-5.23
-4.71
-5.35
-7.00
-9.53
-12.92
-17.19
-22.33
-28.19
-34.34
-40.25
-45.34
-49.23
-51.78
-53.16
-53.68
-53.71
-53.42
-52.72
-51.38
-49.14
-45.94
-42.05
-37.92
-33.96
-30.38
-27.07
-23.76
-20.22
-16.45
-12.59
-8.84
-5.31
-1.90
1.57
5.29
9.30
13.43
17.30
20.40
22.23
22.41
20.90
18.00
14.35
10.79
8.10
6.81
7.15
8.98
12.04
15.98
20.47
25.19
29.78
33.94
37.39
39.95
41.59
42.29
42.11
41.10
39.35
37.06
34.59
32.38
30.80
29.99
29.76
29.66
29.17
27.93
25.85
23.09
19.88
16.38
12.54
8.30
3.66
-1.07
-5.33
-8.40
-9.66
-8.90
-6.33
-2.55
1.61
5.39
8.21
9.82
10.26
9.86
9.07
8.33
7.88
7.72
7.69
7.59
7.43
7.42
7.95
9.30
11.53
14.35
17.31
20.03
22.31
24.20
25.80
27.19
28.27
28.85
28.73
27.80
25.98
23.20
19.40
14.62
9.14
3.50
-1.65
-5.75
-8.65
-10.58
-12.06
-13.57
-15.33
-17.31
-19.31
-21.24
-23.24
-25.57
-28.43
-31.79
-35.32
